0.329375,0.32875,0.328125,0.328125,0.32875,0.329375,0.33125,0.334375,0.335625,0.336875,0.339375,0.34125,0.344375,0.345,0.345,0.3475,0.351875,0.35375,0.35375,0.355625,0.3575,0.356875,0.356875,0.359375,0.3625,0.363125,0.366875,0.3725,0.378125,0.38375,0.38625,0.38875,0,0.394375,0.4,0.40625,0.4125,0.419375,0.425625,0.431875,0.4375,0.4425,0.446875,0.4525,0.458125,0.460625,0.464375,0.468125,0.4725,0.47375,0.475,0.476875,0.4775,0.4775,0.476875,0.47375,0.473125,0.473125,0.469375,0.466875,0.463125,0.46,0.455,0.4525,0.4475,0,0.441875,0.439375,0.436875,0.431875,0.42875,0.425625,0.419375,0.4125,0.405625,0.399375,0.3975,0.395625,0.393125,0.390625,0.385,0.3825,0.378125,0.37375,0.37,0.366875,0.364375,0.363125,0.36,0.35875,0.358125,0.355,0.35125,0.346875,0.340625,0.338125,0.335,0.334375,0,0.335625,0.335,0.331875,0.33,0.32875,0.32875,0.328125,0.3275,0.3275,0.328125,0.329375,0.330625,0.33,0.329375,0.32875,0.328125,0.328125,0.328125,0.328125,0.32875,0.329375,0.330625,0.330625,0.330625,0.329375,0.32875,0.328125,0.3275,0.328125,0.32875,0.33,0.33,0,0.330625,0.330625,0.33,0.32875,0.328125,0.3275,0.328125,0.32875,0.329375,0.33,0.330625,0.330625,0.329375,0.32875,0.328125,0.328125,0.3275,0.328125,0.33,0.33,0.33,0.33,0.329375,0.32875,0.328125,0.3275,0.328125,0.328125,0.329375,0.33,0.33,0.33,0,0.33,0.329375,0.32875,0.328125,0.328125,0.32875,0.329375,0.330625,0.330625,0.330625,0.329375,0.32875,0.3275,0.3275,0.328125,0.32875,0.33,0.33,0.33,0.33,0.329375,0.329375,0.328125,0.3275,0.3275,0.32875,0.329375,0.33,0.33,0.33,0.33,0.32875,0,0.3275,0.3275,0.328125,0.328125,0.329375,0.329375,0.33,0.33,0.329375,0.32875,0.3275,0.3275,0.3275,0.328125,0.3325,0.33875,0.3425,0.345625,0.35125,0.358125,0.3625,0.36625,0.370625,0.37375,0.375,0.376875,0.380625,0.381875,0.38125,0.380625,0.38,0.379375,0,0.379375,0.38,0.380625,0.380625,0.3775,0.37625,0.375625,0.37375,0.36875,0.366875,0.36625,0.36375,0.361875,0.359375,0.356875,0.35375,0.35,0.345625,0.3425,0.336875,0.333125,0.33125,0.329375,0.33,0.33,0.33,0.33,0.329375,0.3275,0.3275,0.328125,0.328125,0,0.32875,0.33,0.33125,0.330625,0.329375,0.32875,0.328125,0.3275,0.328125,0.328125,0.32875,0.33,0.330625,0.330625,0.33,0.32875,0.328125,0.328125,0.328125,0.32875,0.32875,0.33,0.330625,0.330625,0.33,0.32875,0.321875,0.31,0.30125,0.29,0.28375,0.28875,0,0.303125,0.3275,0.36625,0.415,0.466875,0.51875,0.57125,0.624375,0.678125,0.731875,0.78375,0.82625,0.8575,0.87625,0.886875,0.88875,0.880625,0.861875,0.839375,0.81125,0.77375,0.7275,0.67625,0.6225,0.569375,0.51625,0.463125,0.409375,0.353125,0.295625,0.244375,0.214375,0,0.2125,0.23375,0.2625,0.29,0.3125,0.326875,0.33,0.33,0.33,0.33,0.33,0.33,0.328125,0.3275,0.3275,0.328125,0.329375,0.33,0.330625,0.330625,0.33,0.329375,0.328125,0.3275,0.326875,0.3275,0.32875,0.33,0.330625,0.33,0.33,0.329375,0,0.32875,0.328125,0.328125,0.328125,0.32875,0.329375,0.33,0.33,0.33,0.33,0.328125,0.326875,0.326875,0.329375,0.33375,0.335,0.3375,0.340625,0.343125,0.345625,0.345625,0.345,0.346875,0.350625,0.351875,0.353125,0.35625,0.35875,0.358125,0.3575,0.36,0.361875,0,0.3625,0.36625,0.3725,0.379375,0.385,0.388125,0.39125,0.39625,0.40125,0.40625,0.4125,0.41875,0.425625,0.4325,0.43875,0.444375,0.45,0.455625,0.46,0.46125,0.464375,0.466875,0.47125,0.473125,0.475,0.47875,0.48,0.48,0.476875,0.471875,0.470625,0.47,0,0.4675,0.465625,0.463125,0.460625,0.456875,0.453125,0.44625,0.440625,0.436875,0.434375,0.429375,0.426875,0.424375,0.41875,0.411875,0.40625,0.4,0.39625,0.393125,0.390625,0.3875,0.383125,0.38125,0.378125,0.375,0.370625,0.3675,0.363125,0.360625,0.358125,0.3575,0.3575,0,0.355,0.3525,0.3475,0.341875,0.33875,0.334375,0.333125,0.333125,0.333125,0.330625,0.33,0.33,0.330625,0.33,0.329375,0.3275,0.3275,0.3275,0.32875,0.329375,0.33,0.33,0.330625,0.329375,0.32875,0.328125,0.3275,0.328125,0.32875,0.32875,0.329375,0.330625,0,0.33,0.329375,0.329375,0.328125,0.3275,0.328125,0.328125,0.32875,0.33,0.330625,0.330625,0.33,0.329375,0.328125,0.3275,0.328125,0.32875,0.329375,0.33,0.330625,0.330625,0.33,0.32875,0.328125,0.3275,0.328125,0.328125,0.32875,0.330625,0.330625,0.33,0.33,0,0.329375,0.328125,0.3275,0.3275,0.328125,0.329375,0.33,0.330625,0.329375,0.329375,0.329375,0.3275,0.3275,0.3275,0.328125,0.329375,0.33,0.33,0.330625,0.33,0.32875,0.3275,0.328125,0.3275,0.3275,0.32875,0.330625,0.330625,0.330625,0.33,0.32875,0.32875,0,0.328125,0.328125,0.32875,0.32875,0.33,0.330625,0.33,0.329375,0.32875,0.328125,0.3275,0.3275,0.328125,0.33,0.330625,0.330625,0.330625,0.329375,0.32875,0.328125,0.3275,0.328125,0.32875,0.329375,0.33,0.330625,0.330625,0.33,0.329375,0.328125,0.3275,0.3275,0,0.32875,0.329375,0.33,0.33,0.33,0.33,0.32875,0.328125,0.3275,0.3275,0.32875,0.329375,0.33,0.33,0.330625,0.33,0.329375,0.328125,0.328125,0.328125,0.32875,0.329375,0.33,0.330625,0.330625,0.33,0.32875,0.32875,0.328125,0.328125,0.3275,0.32875,0,0.330625,0.330625,0.33,0.33,0.329375,0.328125,0.3275,0.3275,0.328125,0.329375,0.330625,0.330625,0.330625,0.330625,0.329375,0.328125,0.328125,0.328125,0.3275,0.32875,0.329375,0.33,0.33,0.33,0.32875,0.3275,0.3275,0.328125,0.328125,0.32875,0.33,0.330625,0,0.330625,0.330625,0.32875,0.328125,0.3275,0.3275,0.328125,0.32875,0.33,0.330625,0.33,0.329375,0.32875,0.328125,0.328125,0.328125,0.33,0.335,0.340625,0.343125,0.348125,0.355,0.361875,0.36375,0.36875,0.371875,0.373125,0.374375,0.3775,0.38125,0.38125,0.38125,0,0.380625,0.38,0.37875,0.379375,0.38,0.380625,0.378125,0.37625,0.375625,0.374375,0.371875,0.36875,0.3675,0.364375,0.3625,0.36,0.358125,0.354375,0.351875,0.348125,0.345,0.34,0.334375,0.331875,0.329375,0.32875,0.329375,0.33,0.330625,0.33,0.329375,0.32875,0,0.3275,0.328125,0.328125,0.32875,0.329375,0.33,0.33,0.33,0.329375,0.32875,0.328125,0.32875,0.328125,0.32875,0.329375,0.33,0.330625,0.330625,0.33,0.32875,0.3275,0.3275,0.328125,0.32875,0.33,0.33,0.329375,0.33,0.328125,0.3175,0.305625,0.295625,0,0.285625,0.284375,0.29375,0.31375,0.34625,0.390625,0.44125,0.493125,0.545,0.5975,0.650625,0.70375,0.758125,0.806875,0.843125,0.868125,0.8825,0.889375,0.88625,0.8725,0.85,0.825625,0.793125,0.75125,0.7025,0.650625,0.596875,0.54375,0.490625,0.436875,0.38125,0.323125,0,0.2675,0.22625,0.21,0.22125,0.248125,0.276875,0.301875,0.320625,0.3275,0.328125,0.33,0.330625,0.330625,0.330625,0.329375,0.328125,0.3275,0.3275,0.3275,0.328125,0.32875,0.33,0.33,0.33,0.329375,0.328125,0.3275,0.3275,0.328125,0.32875,0.329375,0.33,0,0.33,0.329375,0.329375,0.32875,0.3275,0.3275,0.328125,0.32875,0.32875,0.33,0.330625,0.33,0.329375,0.32875,0.3275,0.328125,0.330625,0.333125,0.335,0.339375,0.341875,0.345,0.346875,0.345625,0.345625,0.348125,0.350625,0.35125,0.35375,0.358125,0.35875,0.35875,0,0.36,0.3625,0.3625,0.363125,0.368125,0.374375,0.380625,0.38625,0.38875,0.394375,0.4,0.405,0.41,0.415,0.42125,0.428125,0.434375,0.44125,0.4475,0.453125,0.45875,0.460625,0.463125,0.465625,0.468125,0.471875,0.4725,0.476875,0.48,0.479375,0.478125,0.475,0,0.471875,0.470625,0.4675,0.46625,0.463125,0.461875,0.458125,0.455,0.450625,0.44375,0.438125,0.435625,0.43125,0.426875,0.425625,0.42125,0.41625,0.41,0.40375,0.398125,0.395625,0.39125,0.389375,0.385,0.38125,0.38,0.37625,0.373125,0.37,0.36625,0.361875,0.359375,0,0.356875,0.35625,0.355,0.353125,0.35,0.345,0.341875,0.3375,0.33375,0.333125,0.333125,0.33,0.329375,0.330625,0.330625,0.33,0.33,0.329375,0.328125,0.328125,0.328125,0.32875,0.32875,0.33,0.33,0.33,0.330625,0.329375,0.328125,0.328125,0.328125,0.328125,0,0.329375,0.33,0.33,0.33,0.33,0.32875,0.328125,0.328125,0.328125,0.328125,0.32875,0.33,0.330625,0.330625,0.329375,0.329375,0.328125,0.3275,0.328125,0.32875,0.32875,0.33,0.330625,0.33,0.33,0.32875,0.328125,0.328125,0.328125,0.328125,0.329375,0.329375,0,0.33,0.33,0.329375,0.329375,0.32875,0.3275,0.3275,0.328125,0.329375,0.33,0.330625,0.33,0.33,0.329375,0.328125,0.326875,0.3275,0.328125,0.32875,0.33,0.330625,0.330625,0.33,0.329375,0.328125,0.3275,0.3275,0.3275,0.329375,0.330625,0.330625,0.33,0,0.330625,0.329375,0.328125,0.3275,0.3275,0.3275,0.32875,0.33,0.330625,0.330625,0.330625,0.329375,0.32875,0.328125,0.328125,0.328125,0.329375,0.330625,0.330625,0.330625,0.33,0.329375,0.32875,0.328125,0.328125,0.328125,0.32875,0.329375,0.330625,0.330625,0.33,0.32875,0,0.328125,0.3275,0.3275,0.328125,0.32875,0.329375,0.33,0.330625,0.330625,0.33,0.32875,0.328125,0.3275,0.328125,0.329375,0.329375,0.330625,0.330625,0.33,0.329375,0.328125,0.3275,0.3275,0.328125,0.32875,0.329375,0.33,0.33,0.33,0.329375,0.32875,0.328125,0,0.328125,0.32875,0.32875,0.329375,0.33,0.330625,0.33,0.32875,0.32875,0.328125,0.328125,0.328125,0.32875,0.33,0.330625,0.33,0.33,0.329375,0.328125,0.3275,0.3275,0.328125,0.32875,0.329375,0.330625,0.330625,0.330625,0.329375,0.32875,0.328125,0.3275,0.3275,0,0.33,0.33625,0.340625,0.343125,0.349375,0.35625,0.361875,0.363125,0.369375,0.373125,0.374375,0.375625,0.37875,0.381875,0.381875,0.380625,0.38,0.37875,0.37875,0.379375,0.38,0.380625,0.37875,0.37625,0.375625,0.375,0.37125,0.3675,0.366875,0.364375,0.363125,0.36,0,0.358125,0.355,0.3525,0.34875,0.345,0.339375,0.334375,0.3325,0.33,0.33,0.330625,0.33,0.329375,0.329375,0.32875,0.328125,0.328125,0.328125,0.328125,0.33,0.33,0.33,0.33,0.329375,0.329375,0.328125,0.3275,0.3275,0.328125,0.329375,0.33,0.33,0,0.33,0.33,0.32875,0.3275,0.328125,0.328125,0.32875,0.329375,0.33,0.330625,0.330625,0.329375,0.32625,0.315,0.305,0.295,0.285,0.285,0.295,0.315,0.3475,0.39125,0.4425,0.49375,0.546875,0.6,0.6525,0.706875,0.760625,0.808125,0.844375,0.86875,0,0.8825,0.88875,0.885625,0.87125,0.849375,0.824375,0.791875,0.75,0.700625,0.6475,0.594375,0.540625,0.4875,0.434375,0.379375,0.321875,0.265625,0.225625,0.209375,0.2225,0.24875,0.2775,0.301875,0.32125,0.32875,0.329375,0.33,0.330625,0.33,0.329375,0.32875,0.328125,0,0.3275,0.328125,0.328125,0.32875,0.33,0.33,0.33,0.33,0.32875,0.328125,0.3275,0.328125,0.32875,0.329375,0.33,0.330625,0.33,0.329375,0.329375,0.328125,0.328125,0.3275,0.328125,0.329375,0.33,0.33,0.33,0.329375,0.32875,0.328125,0.328125,0.328125,0,0.331875,0.334375,0.33625,0.34,0.3425,0.345,0.34625,0.345,0.345625,0.34875,0.350625,0.351875,0.35375,0.3575,0.35875,0.35875,0.359375,0.36125,0.36125,0.363125,0.368125,0.375625,0.381875,0.386875,0.389375,0.39375,0.39875,0.40375,0.409375,0.41625,0.4225,0.42875,0,0.435,0.441875,0.4475,0.453125,0.458125,0.460625,0.463125,0.465625,0.469375,0.4725,0.47375,0.476875,0.479375,0.479375,0.47875,0.474375,0.471875,0.470625,0.468125,0.46625,0.463125,0.46125,0.458125,0.455,0.45,0.44375,0.4375,0.435,0.43125,0.4275,0.42625,0.421875,0,0.415625,0.409375,0.403125,0.398125,0.395,0.39125,0.389375,0.385,0.381875,0.38,0.37625,0.3725,0.36875,0.365625,0.3625,0.359375,0.3575,0.356875,0.355,0.35375,0.350625,0.344375,0.340625,0.336875,0.33375,0.333125,0.33375,0.33125,0.33,0.33,0.33,0.33,0,0.33,0.32875,0.3275,0.3275,0.328125,0.32875,0.329375,0.33,0.330625,0.33,0.329375,0.32875,0.328125,0.3275,0.328125,0.32875,0.33,0.330625,0.33,0.33,0.329375,0.32875,0.328125,0.328125,0.32875,0.32875,0.33,0.33,0.33,0.33,0.329375,0.32875,0,0.3275,0.3275,0.328125,0.32875,0.329375,0.330625,0.330625,0.33,0.329375,0.32875,0.328125,0.328125,0.328125,0.329375,0.329375,0.330625,0.330625,0.33,0.329375,0.32875,0.328125,0.328125,0.328125,0.328125,0.33,0.330625,0.330625,0.33,0.329375,0.32875,0.32875,0.3275,0,0.328125,0.32875,0.329375,0.33,0.330625,0.329375,0.329375,0.32875,0.328125,0.3275,0.3275,0.32875,0.329375,0.33,0.330625,0.330625,0.329375,0.32875,0.328125,0.326875,0.3275,0.32875,0.329375,0.330625,0.330625,0.330625,0.33,0.329375,0.328125,0.328125,0.32875,0.32875,0,0.33,0.33125,0.330625,0.33,0.33,0.329375,0.3275,0.3275,0.328125,0.32875,0.329375,0.330625,0.330625,0.330625,0.33,0.32875,0.328125,0.3275,0.328125,0.328125,0.329375,0.33,0.33,0.330625,0.33,0.32875,0.328125,0.3275,0.328125,0.328125,0.329375,0.330625,0,0.330625,0.330625,0.33,0.32875,0.328125,0.328125,0.328125,0.32875,0.329375,0.330625,0.330625,0.33,0.33,0.329375,0.328125,0.328125,0.329375,0.333125,0.33875,0.3425,0.346875,0.353125,0.360625,0.36375,0.3675,0.371875,0.373125,0.374375,0.37625,0.38,0.381875,0.381875,0,0.381875,0.380625,0.38,0.379375,0.38,0.380625,0.379375,0.376875,0.37625,0.37625,0.37375,0.369375,0.368125,0.36625,0.3625,0.360625,0.358125,0.355625,0.353125,0.35,0.346875,0.343125,0.336875,0.33375,0.330625,0.32875,0.329375,0.33,0.330625,0.330625,0.330625,0.329375,0,0.328125,0.328125,0.32875,0.329375,0.329375,0.33,0.330625,0.330625,0.329375,0.329375,0.32875,0.3275,0.3275,0.328125,0.329375,0.330625,0.33125,0.330625,0.33,0.329375,0.329375,0.328125,0.328125,0.32875,0.329375,0.33,0.33125,0.33125,0.33,0.3225,0.310625,0.3,0,0.289375,0.28375,0.29,0.305625,0.333125,0.37375,0.423125,0.475,0.526875,0.579375,0.631875,0.685,0.73875,0.790625,0.831875,0.860625,0.87875,0.88875,0.889375,0.87875,0.858125,0.835,0.805625,0.766875,0.72,0.669375,0.61625,0.5625,0.509375,0.455625,0.40125,0.34375,0,0.286875,0.238125,0.213125,0.215625,0.239375,0.2675,0.29375,0.315,0.32625,0.328125,0.32875,0.33,0.330625,0.33,0.33,0.329375,0.32875,0.328125,0.328125,0.32875,0.329375,0.33,0.330625,0.33,0.33,0.32875,0.32875,0.328125,0.328125,0.328125,0.32875,0.33,0,0.330625,0.33125,0.33,0.329375,0.328125,0.328125,0.32875,0.328125,0.32875,0.33,0.330625,0.33125,0.330625,0.329375,0.32875,0.328125,0.33,0.333125,0.33375,0.3375,0.34125,0.344375,0.346875,0.34625,0.345625,0.3475,0.35,0.35125,0.3525,0.355625,0.358125,0.359375,0,0.36,0.3625,0.363125,0.3625,0.36625,0.3725,0.37875,0.384375,0.388125,0.3925,0.398125,0.403125,0.408125,0.41375,0.419375,0.425625,0.431875,0.43875,0.445625,0.451875,0.4575,0.460625,0.4625,0.465,0.4675,0.470625,0.4725,0.475625,0.48,0.480625,0.48,0.476875,0,0.473125,0.471875,0.47,0.46625,0.464375,0.4625,0.46,0.456875,0.453125,0.446875,0.440625,0.436875,0.43375,0.428125,0.425625,0.4225,0.4175,0.4125,0.40625,0.400625,0.396875,0.393125,0.39,0.385625,0.38125,0.380625,0.378125,0.375,0.37125,0.368125,0.36375,0.36125,0,0.3575,0.35625,0.355625,0.353125,0.351875,0.346875,0.3425,0.339375,0.335,0.333125,0.3325,0.331875,0.329375,0.329375,0.330625,0.330625,0.330625,0.33,0.329375,0.32875,0.328125,0.328125,0.32875,0.33,0.330625,0.330625,0.33,0.329375,0.32875,0.328125,0.3275,0.3275,0,0.328125,0.329375,0.330625,0.330625,0.33,0.329375,0.32875,0.328125,0.3275,0.3275,0.32875,0.329375,0.33,0.33,0.330625,0.329375,0.32875,0.3275,0.3275,0.32875,0.32875,0.329375,0.33,0.330625,0.330625,0.33,0.32875,0.328125,0.3275,0.328125,0.329375,0.33,0,0.33,0.33,0.329375,0.32875,0.32875,0.328125,0.328125,0.328125,0.32875,0.329375,0.330625,0.33125,0.330625,0.33,0.329375,0.328125,0.328125,0.3275,0.328125,0.32875,0.33,0.33,0.330625,0.33,0.32875,0.328125,0.3275,0.3275,0.32875,0.329375,0.33,0.330625,0,0.330625,0.329375,0.329375,0.328125,0.3275,0.3275,0.32875,0.33,0.33,0.330625,0.33,0.329375,0.329375,0.328125,0.326875,0.3275,0.328125,0.328125,0.33,0.330625,0.33,0.329375,0.328125,0.328125,0.3275,0.328125,0.328125,0.32875,0.329375,0.330625,0.330625,0.33,0,0.32875,0.328125,0.3275,0.3275,0.3275,0.32875,0.33,0.330625,0.330625,0.329375,0.329375,0.32875,0.32875,0.328125,0.328125,0.329375,0.33,0.330625,0.330625,0.33,0.32875,0.328125,0.328125,0.32875,0.32875,0.329375,0.33,0.33,0.33,0.330625,0.32875,0.3275,0,0.328125,0.330625,0.33625,0.34,0.344375,0.350625,0.35875,0.36375,0.36625,0.37125,0.373125,0.37375,0.374375,0.37875,0.38125,0.3825,0.3825,0.381875,0.38125,0.38,0.379375,0.38,0.379375,0.37625,0.375,0.375625,0.375625,0.371875,0.37,0.368125,0.36375,0.361875,0,0.358125,0.35625,0.35375,0.3525,0.348125,0.345625,0.34,0.334375,0.331875,0.328125,0.328125,0.32875,0.33,0.33,0.330625,0.330625,0.33,0.32875,0.328125,0.328125,0.328125,0.32875,0.329375,0.33125,0.330625,0.33,0.329375,0.32875,0.328125,0.3275,0.3275,0.328125,0,0.33,0.330625,0.330625,0.330625,0.329375,0.32875,0.328125,0.328125,0.328125,0.329375,0.33,0.330625,0.33125,0.32625,0.314375,0.304375,0.2925,0.28375,0.285625,0.2975,0.32,0.356875,0.40375,0.455625,0.5075,0.56,0.611875,0.66375,0.716875,0.77,0.816875,0.85125,0,0.873125,0.885625,0.89125,0.885,0.8675,0.84375,0.816875,0.781875,0.738125,0.689375,0.636875,0.584375,0.530625,0.476875,0.4225,0.36625,0.3075,0.25375,0.21875,0.210625,0.22875,0.2575,0.285,0.30875,0.324375,0.328125,0.3275,0.32875,0.33,0.330625,0.33125,0.330625,0,0.329375,0.32875,0.328125,0.328125,0.328125,0.32875,0.329375,0.330625,0.330625,0.33125,0.330625,0.329375,0.32875,0.328125,0.328125,0.329375,0.329375,0.33,0.33,0.33,0.33,0.32875,0.328125,0.3275,0.328125,0.329375,0.33,0.330625,0.330625,0.33,0.329375,0.328125,0,0.32875,0.333125,0.334375,0.335625,0.34,0.343125,0.34625,0.346875,0.346875,0.3475,0.35,0.350625,0.35125,0.35375,0.3575,0.359375,0.359375,0.36125,0.36375,0.36375,0.365625,0.37,0.375625,0.3825,0.38625,0.390625,0.395625,0.401875,0.4075,0.413125,0.4175,0.423125,0,0.429375,0.435625,0.441875,0.44875,0.455,0.460625,0.4625,0.465,0.46625,0.469375,0.47125,0.473125,0.4775,0.479375,0.48,0.479375,0.475,0.4725,0.470625,0.46625,0.464375,0.461875,0.46,0.4575,0.455625,0.450625,0.44375,0.43875,0.435,0.429375,0.42625,0.424375,0,0.419375,0.414375,0.40875,0.4025,0.39875,0.395625,0.39125,0.388125,0.383125,0.380625,0.378125,0.37625,0.37375,0.370625,0.36625,0.363125,0.359375,0.356875,0.35625,0.35375,0.351875,0.34875,0.344375,0.341875,0.3375,0.335,0.33375,0.333125,0.33,0.32875,0.329375,0.330625,0,0.330625,0.330625,0.330625,0.329375,0.328125,0.328125,0.328125,0.32875,0.329375,0.330625,0.33125,0.330625,0.329375,0.329375,0.328125,0.328125,0.328125,0.328125,0.329375,0.330625,0.330625,0.330625,0.330625,0.329375,0.32875,0.328125,0.328125,0.328125,0.32875,0.33,0.330625,0.330625,0,0.33,0.32875,0.328125,0.328125,0.3275,0.32875,0.329375,0.330625,0.33125,0.330625,0.330625,0.329375,0.328125,0.3275,0.328125,0.32875,0.329375,0.330625,0.330625,0.33,0.33,0.329375,0.328125,0.328125,0.3275,0.328125,0.329375,0.33,0.330625,0.33,0.33,0.329375,0,0.32875,0.328125,0.3275,0.328125,0.329375,0.33,0.330625,0.330625,0.33,0.32875,0.328125,0.3275,0.328125,0.328125,0.32875,0.33,0.330625,0.330625,0.33,0.329375,0.32875,0.3275,0.3275,0.32875,0.329375,0.330625,0.33125,0.33125,0.33,0.32875,0.328125,0.328125,0,0.328125,0.3275,0.32875,0.33,0.33,0.330625,0.33,0.32875,0.32875,0.328125,0.3275,0.328125,0.32875,0.33,0.330625,0.330625,0.33,0.32875,0.328125,0.3275,0.328125,0.328125,0.32875,0.329375,0.330625,0.330625,0.33,0.329375,0.32875,0.3275,0.3275,0.32875,0,0.329375,0.33,0.330625,0.33,0.329375,0.32875,0.32875,0.32875,0.328125,0.328125,0.32875,0.33,0.330625,0.33125,0.33,0.33,0.329375,0.329375,0.33375,0.338125,0.341875,0.3475,0.355625,0.363125,0.36625,0.37,0.373125,0.37375,0.37375,0.375625,0.38,0.38125,0,0.381875,0.381875,0.381875,0.38125,0.380625,0.379375,0.379375,0.376875,0.374375,0.375,0.375625,0.37375,0.37,0.36875,0.365625,0.3625,0.359375,0.35625,0.35375,0.3525,0.35,0.3475,0.343125,0.336875,0.33375,0.33,0.32875,0.32875,0.329375,0.329375,0.33,0.33125,0,0.330625,0.329375,0.32875,0.328125,0.3275,0.328125,0.32875,0.329375,0.330625,0.330625,0.33,0.33,0.329375,0.328125,0.328125,0.328125,0.32875,0.33,0.330625,0.330625,0.33,0.329375,0.32875,0.328125,0.3275,0.3275,0.32875,0.329375,0.330625,0.329375,0.32,0.30875,0,0.298125,0.28625,0.283125,0.29125,0.30875,0.34,0.384375,0.435625,0.48875,0.540625,0.5925,0.64375,0.69625,0.749375,0.799375,0.838125,0.865625,0.881875,0.890625,0.88875,0.875625,0.853125,0.828125,0.796875,0.755625,0.708125,0.656875,0.604375,0.55125,0.498125,0.44375,0.388125,0,0.33,0.273125,0.22875,0.209375,0.219375,0.24625,0.275,0.300625,0.320625,0.328125,0.3275,0.328125,0.32875,0.33,0.33125,0.33125,0.33125,0.33,0.32875,0.328125,0.3275,0.328125,0.32875,0.329375,0.33,0.330625,0.330625,0.33,0.329375,0.32875,0.328125,0.32875,0,0.329375,0.329375,0.33,0.33125,0.330625,0.33,0.32875,0.328125,0.3275,0.3275,0.328125,0.329375,0.330625,0.330625,0.330625,0.329375,0.329375,0.33125,0.333125,0.33375,0.338125,0.34125,0.344375,0.3475,0.3475,0.3475,0.35,0.35125,0.350625,0.351875,0.355625,0.358125,0,0.35875,0.36,0.36375,0.365,0.365,0.36875,0.37375,0.379375,0.384375,0.3875,0.39375,0.399375,0.405625,0.41125,0.41625,0.42125,0.42625,0.4325,0.439375,0.445,0.453125,0.459375,0.4625,0.464375,0.46625,0.46875,0.470625,0.471875,0.474375,0.478125,0.48,0.48,0,0.476875,0.474375,0.4725,0.46875,0.465625,0.463125,0.460625,0.4575,0.45625,0.451875,0.446875,0.44125,0.4375,0.433125,0.4275,0.425,0.420625,0.415,0.41,0.404375,0.4,0.3975,0.39375,0.390625,0.385,0.38,0.37875,0.375625,0.373125,0.370625,0.368125,0.365,0,0.361875,0.358125,0.35625,0.354375,0.3525,0.350625,0.345,0.341875,0.339375,0.335625,0.334375,0.33375,0.33125,0.32875,0.32875,0.329375,0.330625,0.330625,0.330625,0.33,0.329375,0.32875,0.32875,0.328125,0.328125,0.329375,0.33,0.330625,0.330625,0.33,0.32875,0.328125,0,0.3275,0.328125,0.32875,0.329375,0.329375,0.33,0.33,0.33,0.329375,0.328125,0.328125,0.32875,0.32875,0.32875,0.33,0.330625,0.330625,0.33,0.33,0.32875,0.328125,0.328125,0.328125,0.329375,0.33,0.33,0.330625,0.33,0.329375,0.32875,0.32875,0.32875,0,0.328125,0.32875,0.33,0.330625,0.330625,0.33,0.32875,0.328125,0.328125,0.3275,0.328125,0.32875,0.33,0.330625,0.33,0.33,0.33,0.32875,0.328125,0.328125,0.328125,0.32875,0.33,0.330625,0.330625,0.33,0.33,0.329375,0.32875,0.328125,0.328125,0.32875,0,0.33,0.330625,0.330625,0.330625,0.33,0.32875,0.328125,0.3275,0.328125,0.32875,0.33,0.330625,0.33125,0.330625,0.33,0.329375,0.328125,0.3275,0.328125,0.32875,0.33,0.330625,0.330625,0.33,0.329375,0.328125,0.328125,0.328125,0.328125,0.32875,0.329375,0.33,0,0.329375,0.33,0.329375,0.328125,0.3275,0.328125,0.328125,0.32875,0.329375,0.330625,0.330625,0.33,0.329375,0.32875,0.328125,0.328125,0.32875,0.32875,0.329375,0.330625,0.330625,0.330625,0.329375,0.329375,0.32875,0.328125,0.32875,0.329375,0.33,0.330625,0.330625,0.330625,0,0.33,0.32875,0.33125,0.336875,0.340625,0.34375,0.35125,0.36125,0.365625,0.36875,0.37375,0.375,0.37375,0.37375,0.378125,0.380625,0.38125,0.381875,0.381875,0.381875,0.38125,0.380625,0.380625,0.378125,0.375,0.37375,0.375,0.375,0.371875,0.370625,0.36875,0.364375,0,0.360625,0.356875,0.354375,0.351875,0.350625,0.348125,0.345625,0.34,0.33625,0.3325,0.32875,0.328125,0.32875,0.329375,0.33,0.33,0.330625,0.33,0.329375,0.329375,0.328125,0.328125,0.328125,0.32875,0.329375,0.330625,0.330625,0.330625,0.33,0.32875,0.328125,0.3275,0,0.328125,0.32875,0.329375,0.330625,0.33125,0.330625,0.33,0.32875,0.32875,0.328125,0.328125,0.32875,0.33,0.330625,0.325,0.3125,0.303125,0.29125,0.28375,0.286875,0.300625,0.32625,0.365625,0.415625,0.46875,0.520625,0.573125,0.624375,0.67625,0.72875,0.780625,0.824375,0,0.855625,0.876875,0.888125,0.89125,0.883125,0.86375,0.83875,0.81,0.771875,0.72625,0.67625,0.624375,0.571875,0.519375,0.46625,0.411875,0.35375,0.295,0.243125,0.213125,0.211875,0.235,0.264375,0.29125,0.314375,0.3275,0.32875,0.328125,0.328125,0.32875,0.329375,0.33,0,0.330625,0.330625,0.33,0.329375,0.328125,0.328125,0.328125,0.32875,0.329375,0.33,0.330625,0.33,0.33,0.32875,0.32875,0.328125,0.3275,0.328125,0.32875,0.33,0.330625,0.330625,0.33,0.329375,0.32875,0.328125,0.328125,0.32875,0.329375,0.33,0.330625,0.330625,0,0.33,0.330625,0.333125,0.33375,0.335,0.338125,0.341875,0.34625,0.3475,0.3475,0.348125,0.35125,0.350625,0.35125,0.35375,0.356875,0.3575,0.35875,0.3625,0.365,0.364375,0.366875,0.371875,0.376875,0.3825,0.385625,0.390625,0.396875,0.403125,0.409375,0.415,0.420625,0,0.425,0.43,0.43625,0.4425,0.44875,0.455625,0.460625,0.463125,0.46625,0.468125,0.470625,0.47125,0.4725,0.476875,0.47875,0.479375,0.478125,0.475,0.473125,0.47125,0.4675,0.46375,0.460625,0.458125,0.455,0.453125,0.44875,0.443125,0.439375,0.435625,0.429375,0.425625,0,0.4225,0.4175,0.411875,0.40625,0.401875,0.399375,0.395625,0.391875,0.3875,0.381875,0.37875,0.375625,0.37375,0.37125,0.369375,0.36625,0.363125,0.359375,0.356875,0.355625,0.351875,0.35,0.345625,0.3425,0.34125,0.3375,0.335625,0.335625,0.333125,0.32875,0.328125,0.32875,0,0.32875,0.32875,0.33,0.330625,0.33,0.329375,0.32875,0.328125,0.328125,0.3275,0.328125,0.329375,0.330625,0.33,0.33,0.329375,0.32875,0.328125,0.328125,0.328125,0.32875,0.329375,0.330625,0.330625,0.330625,0.32875,0.328125,0.328125,0.328125,0.3275,0.32875,0.329375,0,0.33,0.330625,0.330625,0.33,0.32875,0.3275,0.3275,0.3275,0.328125,0.33,0.33,0.330625,0.33,0.329375,0.32875,0.328125,0.328125,0.328125,0.32875,0.329375,0.33,0.33,0.330625,0.33,0.32875,0.328125,0.3275,0.328125,0.32875,0.33,0.33125,0.330625,0,0.330625,0.33,0.32875,0.328125,0.3275,0.328125,0.329375,0.33,0.330625,0.330625,0.33,0.33,0.32875,0.3275,0.328125,0.328125,0.32875,0.329375,0.330625,0.330625,0.33,0.329375,0.32875,0.32875,0.328125,0.328125,0.32875,0.33,0.330625,0.330625,0.330625,0.33,0,0.329375,0.32875,0.328125,0.328125,0.32875,0.329375,0.33,0.33,0.33,0.329375,0.32875,0.328125,0.3275,0.3275,0.32875,0.33,0.330625,0.330625,0.33,0.329375,0.32875,0.328125,0.328125,0.328125,0.32875,0.329375,0.33,0.33,0.329375,0.329375,0.32875,0.328125,0,0.328125,0.328125,0.32875,0.329375,0.33,0.330625,0.330625,0.33,0.329375,0.328125,0.3275,0.328125,0.32875,0.329375,0.330625,0.330625,0.330625,0.330625,0.33125,0.335,0.33875,0.341875,0.346875,0.355625,0.363125,0.366875,0.371875,0.375,0.374375,0.37375,0.37625,0.37875,0,0.38,0.380625,0.38125,0.381875,0.381875,0.38125,0.380625,0.379375,0.375625,0.37375,0.37375,0.374375,0.3725,0.370625,0.37,0.36625,0.363125,0.358125,0.355,0.351875,0.350625,0.3475,0.345625,0.341875,0.336875,0.334375,0.330625,0.32875,0.32875,0.328125,0.328125,0.328125,0,0.33,0.330625,0.33,0.33,0.329375,0.328125,0.328125,0.3275,0.328125,0.32875,0.33,0.330625,0.330625,0.33,0.329375,0.32875,0.328125,0.328125,0.32875,0.32875,0.329375,0.33,0.330625,0.330625,0.329375,0.32875,0.328125,0.328125,0.328125,0.32875,0.3275,0.3175,0,0.3075,0.296875,0.28625,0.284375,0.294375,0.314375,0.34875,0.394375,0.4475,0.500625,0.55375,0.605625,0.6575,0.70875,0.76125,0.80875,0.844375,0.86875,0.88375,0.891875,0.8875,0.8725,0.849375,0.8225,0.7875,0.74375,0.695,0.643125,0.591875,0.54,0.486875,0.433125,0,0.37625,0.3175,0.26125,0.22125,0.208125,0.223125,0.2525,0.2825,0.3075,0.325,0.32875,0.328125,0.328125,0.3275,0.328125,0.32875,0.329375,0.33,0.33,0.33,0.329375,0.32875,0.328125,0.328125,0.328125,0.329375,0.33,0.330625,0.330625,0.33,0.329375,0.328125,0,0.328125,0.328125,0.328125,0.329375,0.33,0.33,0.33,0.33,0.329375,0.32875,0.3275,0.328125,0.328125,0.32875,0.33,0.330625,0.330625,0.330625,0.333125,0.33375,0.334375,0.3375,0.34,0.344375,0.346875,0.3475,0.34875,0.351875,0.3525,0.351875,0.353125,0.355625,0,0.356875,0.3575,0.36,0.364375,0.365,0.366875,0.370625,0.375625,0.380625,0.384375,0.3875,0.39375,0.4,0.406875,0.413125,0.41875,0.42375,0.42875,0.43375,0.44,0.44625,0.4525,0.459375,0.463125,0.465625,0.468125,0.47125,0.4725,0.471875,0.475,0.476875,0.478125,0,0.47875,0.475625,0.474375,0.473125,0.46875,0.46625,0.4625,0.459375,0.455,0.45375,0.450625,0.445,0.440625,0.4375,0.431875,0.4275,0.42375,0.418125,0.4125,0.4075,0.403125,0.4,0.396875,0.393125,0.39,0.385,0.38,0.3775,0.374375,0.371875,0.369375,0.366875,0,0.364375,0.36125,0.35875,0.3575,0.3525,0.35,0.3475,0.3425,0.340625,0.338125,0.33625,0.335625,0.334375,0.330625,0.328125,0.3275,0.328125,0.32875,0.329375,0.33125,0.33125,0.33,0.33,0.329375,0.328125,0.3275,0.3275,0.32875,0.329375,0.33,0.330625,0.330625,0,0.329375,0.329375,0.3275,0.328125,0.328125,0.32875,0.33,0.330625,0.33125,0.330625,0.33,0.32875,0.328125,0.328125,0.328125,0.32875,0.329375,0.33,0.33,0.33,0.33,0.32875,0.328125,0.328125,0.3275,0.32875,0.32875,0.329375,0.330625,0.330625,0.33,0.32875,0,0.328125,0.328125,0.328125,0.32875,0.329375,0.33,0.330625,0.330625,0.33,0.329375,0.328125,0.3275,0.328125,0.32875,0.32875,0.33,0.33,0.33,0.329375,0.329375,0.328125,0.328125,0.328125,0.32875,0.32875,0.33,0.330625,0.330625,0.33,0.32875,0.328125,0.328125,0,0.3275,0.3275,0.329375,0.330625,0.330625,0.330625,0.33,0.32875,0.328125,0.328125,0.328125,0.328125,0.329375,0.33,0.330625,0.330625,0.33,0.32875,0.328125,0.3275,0.3275,0.328125,0.32875,0.33,0.330625,0.33,0.33,0.32875,0.328125,0.3275,0.3275,0.3275,0,0.32875,0.33,0.330625,0.33125,0.33,0.32875,0.328125,0.328125,0.32875,0.328125,0.329375,0.329375,0.33,0.33,0.329375,0.32875,0.3275,0.3275,0.3275,0.328125,0.329375,0.329375,0.330625,0.33,0.329375,0.329375,0.328125,0.328125,0.328125,0.328125,0.329375,0.33,0,0.330625,0.330625,0.33,0.329375,0.32875,0.328125,0.3275,0.328125,0.32875,0.329375,0.33,0.33,0.329375,0.329375,0.32875,0.3275,0.3275,0.328125,0.329375,0.329375,0.33,0.33,0.33,0.329375,0.32875,0.328125,0.328125,0.328125,0.32875,0.329375,0.33,0.33,0,0.33,0.329375,0.328125,0.328125,0.328125,0.328125,0.32875,0.329375,0.33,0.330625,0.33,0.329375,0.32875,0.328125,0.3275,0.3275,0.32875,0.33,0.330625,0.33,0.33,0.32875,0.328125,0.3275,0.328125,0.32875,0.329375,0.33,0.33,0.330625,0.33,0.329375,0,0.328125,0.328125,0.328125,0.328125,0.32875,0.329375,0.33,0.330625,0.33,0.329375,0.32875,0.3275,0.328125,0.328125,0.328125,0.329375,0.33,0.331875,0.336875,0.339375,0.34125,0.346875,0.35375,0.36125,0.365,0.37125,0.375625,0.37625,0.37625,0.3775,0.38,0.379375,0,0.379375,0.379375,0.38,0.380625,0.3825,0.383125,0.381875,0.3775,0.374375,0.373125,0.373125,0.370625,0.369375,0.36875,0.366875,0.364375,0.360625,0.356875,0.3525,0.349375,0.34625,0.344375,0.340625,0.33625,0.334375,0.331875,0.330625,0.329375,0.328125,0.3275,0.3275,0.3275,0,0.32875,0.329375,0.330625,0.330625,0.33,0.329375,0.32875,0.3275,0.3275,0.328125,0.329375,0.33,0.33,0.330625,0.330625,0.329375,0.32875,0.3275,0.3275,0.3275,0.32875,0.329375,0.33,0.330625,0.330625,0.33,0.328125,0.328125,0.326875,0.325625,0.31625,0.306875,0,0.298125,0.2875,0.285625,0.295,0.313125,0.345625,0.390625,0.4425,0.495625,0.54875,0.6025,0.655625,0.708125,0.76,0.806875,0.841875,0.866875,0.881875,0.89,0.888125,0.87375,0.851875,0.825625,0.790625,0.7475,0.6975,0.645,0.5925,0.540625,0.48875,0.43625,0.380625,0,0.321875,0.265,0.22375,0.2075,0.22,0.24875,0.278125,0.304375,0.32375,0.33,0.33,0.329375,0.328125,0.3275,0.3275,0.328125,0.32875,0.329375,0.33,0.330625,0.330625,0.33,0.329375,0.328125,0.3275,0.3275,0.328125,0.329375,0.33,0.33,0.33,0.329375,0,0.32875,0.328125,0.328125,0.3275,0.32875,0.32875,0.33,0.33125,0.330625,0.329375,0.32875,0.328125,0.3275,0.328125,0.32875,0.329375,0.330625,0.334375,0.335625,0.335625,0.338125,0.34,0.3425,0.344375,0.345625,0.346875,0.35125,0.35375,0.353125,0.35375,0.35625,0.356875,0,0.356875,0.358125,0.361875,0.363125,0.36625,0.37125,0.376875,0.381875,0.385,0.386875,0.3925,0.398125,0.405,0.410625,0.4175,0.424375,0.430625,0.435625,0.440625,0.445625,0.450625,0.45625,0.46,0.464375,0.4675,0.47125,0.47375,0.47375,0.47625,0.4775,0.4775,0.476875,0,0.474375,0.4725,0.473125,0.47,0.4675,0.46375,0.46125,0.45625,0.453125,0.448125,0.443125,0.44,0.43875,0.43375,0.42875,0.42625,0.42,0.41375,0.4075,0.401875,0.3975,0.39625,0.39375,0.391875,0.38625,0.3825,0.379375,0.374375,0.37125,0.368125,0.365625,0.363125,0,0.361875,0.359375,0.358125,0.355625,0.351875,0.348125,0.3425,0.339375,0.33625,0.334375,0.335625,0.335625,0.3325,0.330625,0.33,0.32875,0.328125,0.3275,0.328125,0.329375,0.33,0.33125,0.33125,0.330625,0.329375,0.32875,0.3275,0.328125,0.32875,0.32875,0.33,0.330625,0,0.33125,0.330625,0.329375,0.328125,0.3275,0.3275,0.328125,0.329375,0.33,0.330625,0.33,0.33,0.32875,0.328125,0.328125,0.328125,0.328125,0.329375,0.33,0.330625,0.330625,0.33,0.329375,0.328125,0.3275,0.3275,0.328125,0.32875,0.33,0.33,0.330625,0.330625,0,0.329375,0.328125,0.3275,0.326875,0.3275,0.32875,0.329375,0.33,0.33,0.33,0.33,0.32875,0.328125,0.328125,0.328125,0.329375,0.330625,0.330625,0.330625,0.33,0.33,0.32875,0.328125,0.328125,0.32875,0.329375,0.329375,0.33125,0.33125,0.330625,0.329375,0.32875,0,0.328125,0.328125,0.328125,0.32875,0.33,0.330625,0.330625,0.33,0.33,0.328125,0.328125,0.3275,0.3275,0.32875,0.33,0.330625,0.33,0.33,0.329375,0.328125,0.328125,0.328125,0.32875,0.329375,0.33,0.333125,0.338125,0.34125,0.34375,0.34875,0.35625,0.361875,0,0.365,0.370625,0.375,0.37625,0.376875,0.37875,0.38,0.38,0.379375,0.379375,0.38,0.38,0.38125,0.381875,0.38125,0.3775,0.375625,0.37375,0.371875,0.36875,0.3675,0.368125,0.365625,0.36375,0.36,0.3575,0.353125,0.35,0.345625,0.343125,0.33875,0.334375,0,0.333125,0.330625,0.330625,0.330625,0.33,0.32875,0.328125,0.3275,0.3275,0.328125,0.329375,0.33,0.33,0.330625,0.329375,0.329375,0.328125,0.328125,0.328125,0.32875,0.329375,0.330625,0.330625,0.330625,0.329375,0.32875,0.3275,0.326875,0.328125,0.32875,0.33,0.330625,0,0.330625,0.330625,0.33,0.32875,0.3275,0.324375,0.31375,0.304375,0.294375,0.28625,0.2875,0.29875,0.32,0.355,0.400625,0.453125,0.50625,0.55875,0.6125,0.66625,0.719375,0.77125,0.81625,0.85,0.87125,0.88375,0.88875,0.88375,0.86875,0.846875,0.819375,0.78375,0,0.738125,0.688125,0.635,0.58125,0.529375,0.476875,0.424375,0.36875,0.310625,0.255625,0.21875,0.209375,0.22625,0.254375,0.28375,0.308125,0.325625,0.330625,0.330625,0.330625,0.33,0.32875,0.328125,0.328125,0.328125,0.32875,0.329375,0.33,0.330625,0.330625,0.329375,0.32875,0,0.328125,0.3275,0.3275,0.32875,0.329375,0.330625,0.330625,0.33125,0.330625,0.329375,0.32875,0.328125,0.328125,0.32875,0.329375,0.33,0.33,0.330625,0.329375,0.329375,0.32875,0.328125,0.328125,0.32875,0.33,0.334375,0.33625,0.336875,0.340625,0.341875,0.344375,0.345,0,0.345,0.346875,0.35125,0.353125,0.35375,0.35625,0.35875,0.358125,0.356875,0.359375,0.3625,0.363125,0.36625,0.3725,0.378125,0.384375,0.386875,0.389375,0.39375,0.399375,0.405625,0.411875,0.418125,0.425625,0.43125,0.436875,0.4425,0.448125,0.4525,0.458125,0.46,0.46375,0,0.4675,0.471875,0.474375,0.475,0.478125,0.47875,0.4775,0.47625,0.4725,0.471875,0.47125,0.469375,0.4675,0.464375,0.460625,0.45625,0.453125,0.4475,0.441875,0.4375,0.43625,0.4325,0.42875,0.42625,0.42,0.413125,0.406875,0.4,0.39625,0.394375,0.391875,0.389375,0,0.385,0.381875,0.37875,0.375,0.370625,0.3675,0.36375,0.361875,0.359375,0.358125,0.358125,0.355,0.3525,0.348125,0.341875,0.338125,0.335625,0.334375,0.334375,0.334375,0.331875,0.330625,0.329375,0.32875,0.32875,0.328125,0.3275,0.328125,0.329375,0.33,0.330625,0.33,0,0.329375,0.32875,0.32875,0.328125,0.3275,0.328125,0.32875,0.33,0.33125,0.330625,0.33,0.329375,0.328125,0.328125,0.3275,0.328125,0.32875,0.32875,0.33,0.33,0.33,0.329375,0.328125,0.3275,0.328125,0.328125,0.32875,0.329375,0.330625,0.330625,0.33,0.329375,0,0.32875,0.328125,0.328125,0.328125,0.32875,0.329375,0.330625,0.330625,0.330625,0.33,0.32875,0.3275,0.328125,0.328125,0.32875,0.33,0.33,0.33,0.33,0.33,0.32875,0.328125,0.328125,0.3275,0.328125,0.33,0.330625,0.330625,0.33,0.33,0.32875,0.3275,0,0.3275,0.328125,0.32875,0.32875,0.33,0.330625,0.33,0.329375,0.32875,0.3275,0.3275,0.3275,0.32875,0.329375,0.330625,0.330625,0.330625,0.33,0.32875,0.3275,0.328125,0.3275,0.328125,0.32875,0.330625,0.330625,0.33,0.329375,0.32875,0.32875,0.328125,0.328125,0,0.32875,0.33,0.33625,0.340625,0.34375,0.348125,0.354375,0.360625,0.363125,0.36875,0.373125,0.375,0.37625,0.37875,0.38125,0.380625,0.38,0.379375,0.37875,0.379375,0.38,0.380625,0.38125,0.37875,0.375625,0.375,0.374375,0.370625,0.368125,0.368125,0.365625,0.36375,0,0.36125,0.35875,0.355,0.351875,0.346875,0.34375,0.34,0.335,0.333125,0.33,0.33,0.330625,0.33125,0.33,0.329375,0.32875,0.328125,0.3275,0.32875,0.329375,0.33,0.330625,0.330625,0.329375,0.32875,0.328125,0.3275,0.328125,0.328125,0.329375,0.33,0.33,0,0.33,0.329375,0.328125,0.328125,0.3275,0.328125,0.328125,0.32875,0.330625,0.330625,0.330625,0.33,0.32875,0.32625,0.31625,0.30625,0.296875,0.2875,0.285625,0.295,0.313125,0.344375,0.388125,0.438125,0.490625,0.54375,0.59625,0.65,0.703125,0.756875,0.805625,0.84125,0,0.86625,0.880625,0.88875,0.88625,0.873125,0.851875,0.8275,0.795,0.753125,0.70375,0.650625,0.596875,0.544375,0.491875,0.43875,0.38375,0.32625,0.27,0.22625,0.20875,0.22,0.246875,0.275,0.30125,0.320625,0.32875,0.33,0.330625,0.33,0.33,0.329375,0.328125,0,0.328125,0.328125,0.32875,0.329375,0.33,0.33125,0.33125,0.33,0.32875,0.328125,0.3275,0.3275,0.328125,0.329375,0.33,0.330625,0.330625,0.33,0.32875,0.328125,0.328125,0.32875,0.32875,0.32875,0.33,0.33,0.33,0.33,0.329375,0.32875,0.328125,0.3275,0,0.32875,0.3325,0.335,0.335625,0.339375,0.34125,0.344375,0.345,0.344375,0.345,0.349375,0.351875,0.3525,0.355,0.3575,0.35875,0.358125,0.358125,0.36125,0.361875,0.36375,0.369375,0.37625,0.3825,0.386875,0.38875,0.393125,0.398125,0.403125,0.409375,0.41625,0.423125,0,0.429375,0.435625,0.441875,0.446875,0.4525,0.456875,0.46,0.4625,0.465625,0.47,0.473125,0.474375,0.476875,0.47875,0.479375,0.478125,0.47375,0.471875,0.47125,0.469375,0.466875,0.465,0.461875,0.4575,0.454375,0.45,0.443125,0.4375,0.43625,0.4325,0.428125,0.42625,0,0.421875,0.41625,0.41,0.4025,0.396875,0.395,0.391875,0.390625,0.38625,0.3825,0.380625,0.376875,0.3725,0.36875,0.365625,0.3625,0.360625,0.358125,0.3575,0.35625,0.35375,0.350625,0.34375,0.34,0.33625,0.333125,0.333125,0.33375,0.3325,0.33125,0.330625,0.33,0,0.33,0.329375,0.32875,0.3275,0.328125,0.328125,0.329375,0.33,0.330625,0.33,0.329375,0.32875,0.3275,0.3275,0.3275,0.328125,0.329375,0.33,0.330625,0.33,0.329375,0.32875,0.328125,0.3275,0.328125,0.328125,0.329375,0.33,0.330625,0.330625,0.33,0.32875,0,0.3275,0.3275,0.3275,0.32875,0.329375,0.330625,0.33,0.33,0.329375,0.328125,0.3275,0.328125,0.3275,0.32875,0.32875,0.33,0.330625,0.33,0.329375,0.32875,0.3275,0.3275,0.328125,0.328125,0.329375,0.33,0.33,0.33,0.329375,0.32875,0.328125,0.328125,0,0.328125,0.32875,0.329375,0.330625,0.330625,0.33,0.329375,0.32875,0.328125,0.3275,0.3275,0.32875,0.329375,0.33,0.330625,0.330625,0.33,0.32875,0.3275,0.3275,0.3275,0.32875,0.329375,0.33,0.330625,0.33,0.329375,0.329375,0.328125,0.328125,0.328125,0.328125,0,0.329375,0.33,0.330625,0.330625,0.33,0.32875,0.328125,0.33,0.335,0.339375,0.34375,0.349375,0.3575,0.36375,0.36625,0.37125,0.373125,0.373125,0.37375,0.3775,0.380625,0.381875,0.381875,0.38125,0.380625,0.380625,0.379375,0.38,0.37875,0.375625,0.374375,0.375,0,0.375625,0.371875,0.37,0.368125,0.36375,0.36125,0.3575,0.355,0.353125,0.351875,0.34875,0.34625,0.340625,0.335,0.331875,0.32875,0.328125,0.32875,0.329375,0.330625,0.330625,0.33125,0.330625,0.329375,0.32875,0.328125,0.328125,0.328125,0.32875,0.329375,0.33,0.330625,0,0.329375,0.329375,0.328125,0.3275,0.328125,0.32875,0.33,0.330625,0.33125,0.33,0.329375,0.32875,0.328125,0.328125,0.328125,0.329375,0.33,0.33125,0.330625,0.3275,0.315625,0.30625,0.294375,0.284375,0.284375,0.295625,0.316875,0.353125,0.4,0.451875,0.504375,0.55625,0,0.608125,0.66,0.7125,0.76625,0.813125,0.848125,0.871875,0.885625,0.891875,0.88625,0.869375,0.845625,0.819375,0.784375,0.741875,0.6925,0.64125,0.588125,0.535,0.481875,0.4275,0.37,0.3125,0.256875,0.219375,0.209375,0.226875,0.255,0.283125,0.306875,0.323125,0.3275,0,0.3275,0.328125,0.329375,0.330625,0.330625,0.33,0.33,0.329375,0.328125,0.328125,0.328125,0.32875,0.329375,0.33,0.330625,0.330625,0.33,0.329375,0.328125,0.3275,0.3275,0.328125,0.32875,0.329375,0.33,0.33,0.329375,0.329375,0.328125,0.328125,0.328125,0.328125,0,0.329375,0.33,0.330625,0.330625,0.33,0.329375,0.329375,0.331875,0.333125,0.334375,0.33875,0.341875,0.34625,0.3475,0.346875,0.346875,0.35,0.350625,0.350625,0.353125,0.3575,0.35875,0.36,0.361875,0.364375,0.36375,0.365,0.370625,0.37625,0.381875,0.385625,0.389375,0,0.395625,0.401875,0.4075,0.4125,0.416875,0.421875,0.428125,0.434375,0.44125,0.4475,0.454375,0.460625,0.4625,0.465,0.466875,0.47,0.471875,0.4725,0.476875,0.479375,0.48,0.479375,0.475625,0.47375,0.47125,0.4675,0.465,0.461875,0.46,0.45625,0.455,0.450625,0,0.444375,0.439375,0.43625,0.430625,0.425625,0.42375,0.419375,0.414375,0.409375,0.40375,0.399375,0.39625,0.3925,0.38875,0.383125,0.38,0.3775,0.375625,0.373125,0.369375,0.366875,0.364375,0.36,0.3575,0.355625,0.353125,0.35125,0.348125,0.34375,0.340625,0.336875,0.335,0,0.334375,0.3325,0.329375,0.328125,0.32875,0.33,0.330625,0.330625,0.33,0.329375,0.32875,0.328125,0.328125,0.328125,0.328125,0.32875,0.33,0.33,0.33,0.33,0.32875,0.3275,0.3275,0.328125,0.32875,0.329375,0.33,0.33,0.33,0.329375,0.32875,0.3275,0,0.3275,0.3275,0.32875,0.329375,0.33,0.330625,0.33,0.32875,0.32875,0.3275,0.3275,0.328125,0.32875,0.33,0.330625,0.330625,0.330625,0.33,0.32875,0.328125,0.328125,0.3275,0.32875,0.329375,0.33,0.33,0.33,0.329375,0.32875,0.328125,0.3275,0.328125,0,0.32875,0.33,0.330625,0.330625,0.33,0.329375,0.32875,0.32875,0.328125,0.328125,0.328125,0.329375,0.33,0.330625,0.33,0.33,0.329375,0.32875,0.32875,0.328125,0.32875,0.32875,0.33,0.330625,0.33,0.329375,0.328125,0.328125,0.3275,0.328125,0.328125,0.328125,0,0.33,0.33,0.33,0.329375,0.32875,0.3275,0.3275,0.3275,0.328125,0.32875,0.33,0.33,0.33,0.33,0.329375,0.328125,0.3275,0.3275,0.32875,0.329375,0.33,0.33,0.33,0.329375,0.329375,0.32875,0.3275,0.3275,0.328125,0.32875,0.330625,0.33125,0,0.330625,0.330625,0.33,0.32875,0.328125,0.328125,0.328125,0.32875,0.33,0.330625,0.330625,0.33,0.329375,0.328125,0.3275,0.3275,0.32875,0.32875,0.33,0.33,0.33,0.33,0.32875,0.32875,0.328125,0.328125,0.32875,0.329375,0.33,0.330625,0.330625,0.33,0,0.329375,0.328125,0.3275,0.328125,0.32875,0.32875,0.33,0.330625,0.33,0.33,0.329375,0.328125,0.3275,0.328125,0.328125,0.329375,0.330625,0.33125,0.330625,0.33,0.32875,0.328125,0.3275,0.3275,0.32875,0.329375,0.33,0.330625,0.330625,0.33,0.329375,0.32875,0,0.3275,0.3275,0.3275,0.32875,0.329375,0.33,0.33,0.33,0.32875,0.3275,0.3275,0.3275,0.328125,0.329375,0.329375,0.33,0.330625,0.33,0.32875,0.328125,0.328125,0.328125,0.328125,0.32875,0.329375,0.33,0.33,0.33,0.329375,0.32875,0.328125,0.328125,0,0.328125,0.328125,0.329375,0.330625,0.330625,0.33,0.32875,0.32875,0.33125,0.335625,0.33875,0.343125,0.35,0.35875,0.364375,0.3675,0.3725,0.374375,0.374375,0.374375,0.3775,0.379375,0.38,0.38125,0.38125,0.38125,0.38125,0.380625,0.379375,0.378125,0.375,0.37375,0,0.375,0.375,0.371875,0.37,0.368125,0.364375,0.36125,0.356875,0.354375,0.351875,0.350625,0.3475,0.345,0.34,0.335,0.331875,0.328125,0.328125,0.328125,0.32875,0.329375,0.330625,0.330625,0.33,0.33,0.328125,0.328125,0.328125,0.3275,0.32875,0.33,0.33,0,0.330625,0.33,0.32875,0.328125,0.328125,0.3275,0.3275,0.328125,0.32875,0.33,0.330625,0.33,0.329375,0.32875,0.328125,0.328125,0.328125,0.32875,0.329375,0.33,0.325625,0.31375,0.30375,0.291875,0.283125,0.28625,0.298125,0.321875,0.360625,0.409375,0.461875,0.514375,0,0.56625,0.618125,0.67,0.7225,0.775,0.819375,0.853125,0.874375,0.8875,0.89125,0.884375,0.865625,0.840625,0.813125,0.776875,0.7325,0.6825,0.630625,0.578125,0.525625,0.471875,0.4175,0.359375,0.300625,0.2475,0.214375,0.209375,0.23125,0.26,0.288125,0.310625,0.325,0,0.3275,0.3275,0.32875,0.32875,0.32875,0.329375,0.33,0.33,0.329375,0.32875,0.3275,0.3275,0.3275,0.328125,0.329375,0.33,0.33,0.33,0.329375,0.328125,0.3275,0.3275,0.3275,0.328125,0.329375,0.33,0.33,0.330625,0.33,0.32875,0.328125,0.3275,0,0.3275,0.328125,0.329375,0.33,0.330625,0.330625,0.33,0.33,0.3325,0.333125,0.334375,0.33875,0.341875,0.345625,0.3475,0.3475,0.348125,0.35125,0.35125,0.35125,0.353125,0.356875,0.3575,0.35875,0.36125,0.36375,0.364375,0.366875,0.370625,0.37625,0.381875,0.385625,0,0.389375,0.39625,0.4025,0.40875,0.41375,0.41875,0.424375,0.43,0.435625,0.441875,0.44875,0.455625,0.46125,0.46375,0.46625,0.4675,0.47,0.470625,0.471875,0.476875,0.47875,0.47875,0.47875,0.475,0.473125,0.47125,0.466875,0.464375,0.460625,0.458125,0.455625,0.454375,0,0.45,0.44375,0.439375,0.435625,0.43,0.425625,0.423125,0.418125,0.4125,0.408125,0.401875,0.399375,0.39625,0.391875,0.388125,0.381875,0.37875,0.37625,0.374375,0.371875,0.369375,0.36625,0.36375,0.36,0.356875,0.35625,0.351875,0.35,0.346875,0.343125,0.34125,0.3375,0,0.335625,0.335,0.333125,0.329375,0.328125,0.328125,0.32875,0.330625,0.33,0.33,0.33,0.329375,0.32875,0.328125,0.328125,0.32875,0.32875,0.329375,0.330625,0.33,0.33,0.32875,0.328125,0.328125,0.328125,0.328125,0.32875,0.329375,0.330625,0.330625,0.330625,0.329375,0,0.32875,0.328125,0.328125,0.32875,0.329375,0.33,0.33,0.330625,0.33,0.329375,0.328125,0.328125,0.32875,0.32875,0.32875,0.329375,0.33,0.33,0.33,0.33,0.32875,0.3275,0.328125,0.328125,0.32875,0.329375,0.330625,0.330625,0.330625,0.32875,0.32875,0.3275,0,0.3275,0.328125,0.32875,0.329375,0.33,0.33,0.33,0.329375,0.32875,0.328125,0.3275,0.328125,0.32875,0.33,0.330625,0.33,0.330625,0.33,0.32875,0.32875,0.328125,0.32875,0.32875,0.329375,0.330625,0.33125,0.330625,0.329375,0.32875,0.328125,0.328125,0.328125,0,0.32875,0.329375,0.330625,0.330625,0.330625,0.329375,0.32875,0.328125,0.328125,0.32875,0.329375,0.33,0.33,0.33,0.33,0.329375,0.32875,0.3275,0.3275,0.3275,0.328125,0.329375,0.33,0.330625,0.330625,0.329375,0.32875,0.328125,0.3275,0.328125,0.32875,0.33,0,0.330625,0.330625,0.330625,0.329375,0.32875,0.3275,0.3275,0.328125,0.32875,0.329375,0.330625,0.330625,0.33,0.33,0.32875,0.328125,0.3275,0.328125,0.328125,0.32875,0.33,0.330625,0.330625,0.33,0.33,0.33375,0.338125,0.340625,0.346875,0.355,0.363125,0.36625,0,0.37125,0.374375,0.375,0.374375,0.375625,0.37875,0.38,0.380625,0.381875,0.381875,0.381875,0.38125,0.380625,0.379375,0.375625,0.373125,0.37375,0.374375,0.3725,0.370625,0.37,0.366875,0.363125,0.35875,0.355625,0.3525,0.350625,0.348125,0.34625,0.3425,0.3375,0.334375,0,0.33,0.328125,0.3275,0.3275,0.32875,0.329375,0.33,0.33,0.33,0.329375,0.32875,0.328125,0.3275,0.3275,0.329375,0.33,0.330625,0.330625,0.33,0.329375,0.32875,0.328125,0.3275,0.3275,0.328125,0.32875,0.33,0.33,0.330625,0.33,0.32875,0.328125,0,0.3275,0.3275,0.3275,0.32875,0.328125,0.31875,0.308125,0.2975,0.28625,0.28375,0.2925,0.31125,0.343125,0.38875,0.441875,0.494375,0.546875,0.599375,0.650625,0.701875,0.754375,0.803125,0.840625,0.866875,0.883125,0.891875,0.89,0.875,0.851875,0.825625,0.791875,0.74875,0,0.70125,0.65,0.598125,0.545625,0.493125,0.43875,0.3825,0.32375,0.26625,0.22375,0.2075,0.22,0.24875,0.278125,0.304375,0.323125,0.32875,0.32875,0.3275,0.328125,0.32875,0.329375,0.33,0.330625,0.330625,0.33,0.329375,0.32875,0.328125,0.328125,0.328125,0.32875,0,0.33,0.330625,0.33,0.33,0.329375,0.328125,0.3275,0.3275,0.328125,0.329375,0.33,0.330625,0.330625,0.33,0.329375,0.32875,0.328125,0.3275,0.328125,0.329375,0.33,0.330625,0.330625,0.330625,0.3325,0.33375,0.334375,0.338125,0.340625,0.344375,0.346875,0.3475,0,0.348125,0.35125,0.3525,0.35125,0.35125,0.355,0.356875,0.3575,0.36,0.36375,0.364375,0.365625,0.37,0.375,0.379375,0.38375,0.3875,0.3925,0.39875,0.40625,0.413125,0.418125,0.423125,0.4275,0.433125,0.43875,0.445,0.451875,0.458125,0.4625,0.465,0.4675,0,0.47,0.471875,0.471875,0.475,0.4775,0.47875,0.47875,0.476875,0.474375,0.4725,0.469375,0.465625,0.46125,0.459375,0.455625,0.45375,0.450625,0.445625,0.440625,0.438125,0.4325,0.426875,0.424375,0.419375,0.41375,0.40875,0.40375,0.4,0.3975,0.393125,0.39,0.385,0,0.38,0.3775,0.374375,0.371875,0.37,0.3675,0.364375,0.36125,0.35875,0.356875,0.35375,0.350625,0.3475,0.343125,0.340625,0.33875,0.335625,0.335625,0.334375,0.330625,0.328125,0.3275,0.328125,0.32875,0.329375,0.330625,0.330625,0.33,0.329375,0.32875,0.3275,0.328125,0,0.32875,0.32875,0.329375,0.330625,0.330625,0.330625,0.329375,0.32875,0.328125,0.3275,0.328125,0.32875,0.329375,0.330625,0.330625,0.330625,0.33,0.32875,0.328125,0.3275,0.328125,0.32875,0.329375,0.33,0.330625,0.33,0.32875,0.328125,0.328125,0.3275,0.328125,0.32875,0,0.329375,0.33,0.330625,0.33,0.329375,0.32875,0.328125,0.3275,0.3275,0.328125,0.329375,0.33,0.330625,0.33,0.329375,0.32875,0.328125,0.328125,0.328125,0.32875,0.33,0.33,0.330625,0.33,0.33,0.32875,0.328125,0.328125,0.328125,0.329375,0.329375,0.33,0,0.33,0.33,0.33,0.32875,0.3275,0.3275,0.328125,0.328125,0.33,0.33125,0.33125,0.330625,0.33,0.329375,0.328125,0.328125,0.328125,0.32875,0.329375,0.33,0.330625,0.330625,0.33,0.329375,0.328125,0.3275,0.328125,0.32875,0.33,0.33,0.33125,0.330625,0,0.33,0.32875,0.3275,0.3275,0.328125,0.328125,0.329375,0.330625,0.33,0.33,0.329375,0.32875,0.328125,0.328125,0.328125,0.32875,0.32875,0.33,0.33,0.330625,0.33,0.329375,0.3275,0.3275,0.32875,0.32875,0.329375,0.330625,0.33,0.33,0.33,0.329375,0,0.328125,0.3275,0.328125,0.32875,0.329375,0.329375,0.33,0.330625,0.330625,0.333125,0.3375,0.339375,0.34375,0.350625,0.359375,0.365,0.37,0.374375,0.375,0.375,0.375,0.37875,0.379375,0.38,0.38,0.38125,0.381875,0.381875,0.38125,0.380625,0.378125,0.37375,0,0.37375,0.37375,0.373125,0.370625,0.370625,0.36875,0.364375,0.36125,0.3575,0.35375,0.350625,0.34875,0.345625,0.34375,0.33875,0.335625,0.3325,0.329375,0.328125,0.3275,0.3275,0.32875,0.32875,0.330625,0.33,0.33,0.33,0.329375,0.328125,0.3275,0.328125,0.32875,0,0.329375,0.33,0.330625,0.330625,0.33,0.329375,0.328125,0.3275,0.3275,0.328125,0.32875,0.329375,0.330625,0.330625,0.33,0.329375,0.328125,0.3275,0.328125,0.328125,0.328125,0.3225,0.311875,0.3025,0.290625,0.284375,0.28875,0.303125,0.32875,0.37,0.42,0.47375,0,0.5275,0.58,0.631875,0.68375,0.73625,0.78625,0.828125,0.858125,0.876875,0.88875,0.89125,0.8825,0.86125,0.836875,0.805625,0.76625,0.719375,0.66875,0.616875,0.565,0.513125,0.46,0.405625,0.346875,0.288125,0.2375,0.21,0.211875,0.23625,0.266875,0.295,0.316875,0,0.32875,0.329375,0.32875,0.328125,0.3275,0.328125,0.329375,0.33,0.33125,0.330625,0.330625,0.329375,0.32875,0.3275,0.3275,0.328125,0.32875,0.329375,0.33,0.330625,0.33,0.329375,0.328125,0.3275,0.3275,0.3275,0.32875,0.33,0.330625,0.33,0.33,0.32875,0,0.328125,0.3275,0.3275,0.328125,0.329375,0.33,0.330625,0.33125,0.333125,0.334375,0.334375,0.335625,0.33875,0.341875,0.345625,0.346875,0.3475,0.35,0.3525,0.3525,0.351875,0.354375,0.35625,0.356875,0.35875,0.361875,0.365,0.365625,0.36875,0.373125,0.378125,0.383125,0,0.385625,0.389375,0.39625,0.403125,0.41,0.415625,0.421875,0.426875,0.431875,0.436875,0.443125,0.44875,0.455625,0.46125,0.464375,0.4675,0.47,0.4725,0.4725,0.473125,0.47625,0.4775,0.478125,0.4775,0.47375,0.47375,0.47125,0.4675,0.46375,0.460625,0.456875,0.45375,0,0.45125,0.446875,0.4425,0.439375,0.435625,0.429375,0.42625,0.421875,0.415625,0.41,0.404375,0.4,0.398125,0.395,0.3925,0.388125,0.3825,0.37875,0.375,0.3725,0.369375,0.368125,0.365625,0.363125,0.36,0.35875,0.35625,0.351875,0.34875,0.344375,0.340625,0.33875,0,0.33625,0.335625,0.335625,0.33375,0.33,0.328125,0.328125,0.3275,0.328125,0.329375,0.33,0.330625,0.330625,0.329375,0.329375,0.328125,0.328125,0.3275,0.3275,0.32875,0.33,0.330625,0.330625,0.33,0.32875,0.3275,0.3275,0.3275,0.328125,0.33,0.33,0.33,0,0.33,0.33,0.32875,0.3275,0.3275,0.328125,0.32875,0.329375,0.330625,0.330625,0.330625,0.33,0.329375,0.328125,0.328125,0.328125,0.32875,0.329375,0.33,0.33,0.330625,0.33,0.329375,0.328125,0.3275,0.328125,0.32875,0.33,0.330625,0.330625,0.330625,0.33,0,0.329375,0.328125,0.328125,0.328125,0.32875,0.329375,0.330625,0.33125,0.330625,0.33,0.329375,0.32875,0.328125,0.328125,0.32875,0.329375,0.330625,0.33,0.330625,0.33,0.32875,0.328125,0.328125,0.328125,0.32875,0.329375,0.33,0.330625,0.33,0.33,0.32875,0.328125,0,0.328125,0.3275,0.328125,0.32875,0.33,0.330625,0.33125,0.33,0.329375,0.328125,0.3275,0.328125,0.328125,0.329375,0.33,0.330625,0.330625,0.33,0.329375,0.32875,0.328125,0.326875,0.328125,0.329375,0.33,0.330625,0.33125,0.330625,0.329375,0.328125,0.326875,0.326875,0,0.328125,0.32875,0.329375,0.330625,0.33125,0.33,0.329375,0.32875,0.3275,0.3275,0.32875,0.329375,0.33,0.330625,0.330625,0.33,0.329375,0.328125,0.3275,0.3275,0.3275,0.328125,0.33,0.330625,0.330625,0.3325,0.336875,0.34,0.3425,0.348125,0.35625,0.3625,0,0.366875,0.3725,0.375625,0.375625,0.375625,0.3775,0.37875,0.37875,0.37875,0.38,0.38125,0.381875,0.381875,0.381875,0.38,0.37625,0.373125,0.373125,0.373125,0.370625,0.37,0.37,0.366875,0.36375,0.359375,0.355625,0.35125,0.349375,0.34625,0.345,0.340625,0.336875,0,0.33375,0.33125,0.329375,0.32875,0.328125,0.328125,0.32875,0.329375,0.33,0.330625,0.330625,0.33,0.329375,0.328125,0.328125,0.3275,0.328125,0.32875,0.33,0.330625,0.33,0.33,0.329375,0.328125,0.3275,0.3275,0.328125,0.329375,0.33,0.330625,0.33,0.330625,0,0.329375,0.32875,0.3275,0.3275,0.328125,0.325625,0.315,0.305625,0.295625,0.28625,0.285625,0.296875,0.3175,0.3525,0.4,0.453125,0.506875,0.559375,0.6125,0.664375,0.71625,0.76875,0.81375,0.8475,0.87,0.884375,0.89125,0.886875,0.87,0.8475,0.819375,0.783125,0,0.738125,0.688125,0.63625,0.584375,0.533125,0.480625,0.4275,0.370625,0.31125,0.255,0.2175,0.206875,0.225,0.254375,0.28375,0.30875,0.325625,0.330625,0.329375,0.32875,0.328125,0.328125,0.32875,0.329375,0.329375,0.33,0.330625,0.330625,0.329375,0.32875,0.328125,0.328125,0,0.328125,0.32875,0.329375,0.33,0.33,0.33,0.329375,0.329375,0.328125,0.3275,0.3275,0.32875,0.33,0.330625,0.330625,0.33,0.329375,0.32875,0.328125,0.3275,0.328125,0.32875,0.329375,0.33,0.330625,0.334375,0.335,0.335,0.3375,0.34,0.34375,0.345625,0,0.34625,0.3475,0.351875,0.353125,0.3525,0.35375,0.35625,0.35625,0.356875,0.359375,0.363125,0.364375,0.366875,0.371875,0.376875,0.381875,0.385,0.3875,0.393125,0.4,0.406875,0.413125,0.419375,0.425625,0.430625,0.435625,0.440625,0.44625,0.451875,0.458125,0.461875,0.465625,0,0.46875,0.471875,0.4725,0.473125,0.475625,0.476875,0.4775,0.476875,0.474375,0.47375,0.473125,0.469375,0.466875,0.461875,0.45875,0.455,0.451875,0.44875,0.443125,0.44,0.438125,0.4325,0.428125,0.425,0.41875,0.411875,0.405625,0.400625,0.398125,0.396875,0.394375,0.390625,0,0.384375,0.38125,0.3775,0.37375,0.370625,0.368125,0.365625,0.364375,0.361875,0.359375,0.358125,0.35375,0.35125,0.34625,0.34125,0.339375,0.336875,0.335,0.335625,0.335,0.331875,0.33,0.328125,0.328125,0.328125,0.32875,0.32875,0.33,0.330625,0.330625,0.33,0.32875,0,0.328125,0.3275,0.328125,0.328125,0.32875,0.33,0.330625,0.330625,0.329375,0.32875,0.32875,0.328125,0.328125,0.328125,0.329375,0.330625,0.330625,0.330625,0.33,0.329375,0.32875,0.328125,0.328125,0.32875,0.329375,0.330625,0.33125,0.330625,0.330625,0.329375,0.328125,0.3275,0,0.328125,0.32875,0.329375,0.33,0.33,0.330625,0.330625,0.32875,0.328125,0.328125,0.328125,0.328125,0.32875,0.329375,0.330625,0.330625,0.33,0.329375,0.32875,0.328125,0.328125,0.32875,0.329375,0.329375,0.33,0.330625,0.33,0.329375,0.32875,0.328125,0.3275,0.328125,0,0.32875,0.33,0.330625,0.33,0.33,0.329375,0.328125,0.326875,0.3275,0.328125,0.32875,0.33,0.330625,0.330625,0.33,0.329375,0.32875,0.328125,0.328125,0.328125,0.328125,0.329375,0.330625,0.33,0.33,0.33,0.329375,0.328125,0.3275,0.3275,0.32875,0.329375,0,0.33,0.33,0.329375,0.32875,0.328125,0.328125,0.328125,0.328125,0.328125,0.329375,0.33,0.33,0.33,0.329375,0.32875,0.328125,0.328125,0.328125,0.328125,0.329375,0.330625,0.330625,0.33,0.33,0.329375,0.328125,0.3275,0.328125,0.32875,0.329375,0.33,0.330625,0,0.33,0.329375,0.329375,0.328125,0.328125,0.328125,0.329375,0.33,0.33,0.33125,0.33625,0.34,0.34125,0.345,0.351875,0.36,0.364375,0.370625,0.374375,0.375625,0.375625,0.376875,0.379375,0.379375,0.37875,0.379375,0.380625,0.380625,0.381875,0.381875,0.381875,0.37875,0,0.374375,0.373125,0.373125,0.37125,0.36875,0.369375,0.368125,0.365,0.36125,0.3575,0.35375,0.350625,0.34625,0.344375,0.34125,0.3375,0.335,0.331875,0.33,0.329375,0.32875,0.328125,0.328125,0.32875,0.32875,0.329375,0.33,0.33,0.33,0.329375,0.328125,0.3275,0,0.328125,0.328125,0.32875,0.329375,0.33,0.330625,0.330625,0.33,0.32875,0.328125,0.3275,0.3275,0.3275,0.32875,0.329375,0.33,0.33,0.33,0.32875,0.3275,0.3275,0.32625,0.318125,0.308125,0.299375,0.289375,0.285625,0.2925,0.30875,0.3375,0.380625,0.43125,0,0.484375,0.538125,0.5925,0.645,0.6975,0.749375,0.798125,0.835625,0.8625,0.87875,0.88875,0.88875,0.878125,0.85625,0.83125,0.79875,0.7575,0.708125,0.65625,0.60375,0.55125,0.5,0.4475,0.3925,0.335,0.276875,0.23,0.208125,0.215625,0.243125,0.2725,0.299375,0,0.32125,0.33,0.330625,0.329375,0.32875,0.328125,0.3275,0.328125,0.32875,0.32875,0.33,0.33,0.33,0.329375,0.329375,0.328125,0.328125,0.328125,0.32875,0.329375,0.33,0.330625,0.330625,0.329375,0.32875,0.328125,0.326875,0.328125,0.328125,0.32875,0.33,0.33125,0,0.330625,0.33,0.329375,0.328125,0.3275,0.326875,0.328125,0.32875,0.33,0.33375,0.335625,0.335625,0.3375,0.34,0.3425,0.344375,0.345625,0.34625,0.35,0.353125,0.353125,0.35375,0.356875,0.356875,0.35625,0.3575,0.36125,0.363125,0.365625,0.370625,0.375625,0.380625,0,0.384375,0.38625,0.39125,0.396875,0.403125,0.41,0.41625,0.423125,0.429375,0.434375,0.439375,0.444375,0.449375,0.455625,0.46,0.46375,0.4675,0.470625,0.47375,0.473125,0.475,0.4775,0.476875,0.476875,0.475,0.473125,0.47375,0.47125,0.468125,0.464375,0.460625,0.456875,0,0.45375,0.45,0.444375,0.440625,0.43875,0.435,0.43,0.426875,0.421875,0.415,0.408125,0.401875,0.3975,0.39625,0.394375,0.3925,0.388125,0.383125,0.38,0.375625,0.371875,0.368125,0.36625,0.363125,0.361875,0.359375,0.35875,0.35625,0.3525,0.349375,0.34375,0.339375,0,0.336875,0.335,0.335,0.335625,0.333125,0.33,0.329375,0.328125,0.328125,0.3275,0.328125,0.329375,0.329375,0.33,0.33,0.33,0.33,0.328125,0.3275,0.3275,0.3275,0.32875,0.329375,0.33,0.33,0.33,0.329375,0.32875,0.3275,0.3275,0.328125,0.32875,0,0.33,0.33125,0.33,0.33,0.329375,0.328125,0.328125,0.328125,0.328125,0.32875,0.329375,0.33,0.33,0.33,0.329375,0.328125,0.328125,0.328125,0.3275,0.32875,0.329375,0.330625,0.33,0.329375,0.329375,0.32875,0.328125,0.328125,0.328125,0.329375,0.329375,0.330625,0,0.330625,0.329375,0.329375,0.32875,0.3275,0.3275,0.328125,0.32875,0.329375,0.330625,0.330625,0.330625,0.329375,0.329375,0.328125,0.3275,0.3275,0.32875,0.33,0.33,0.330625,0.330625,0.33,0.32875,0.3275,0.32875,0.328125,0.32875,0.32875,0.33,0.330625,0.33,0,0.329375,0.328125,0.3275,0.328125,0.33125,0.3375,0.34125,0.34625,0.353125,0.360625,0.36375,0.3675,0.371875,0.37375,0.37375,0.375625,0.38,0.381875,0.38125,0.381875,0.380625,0.38,0.379375,0.379375,0.38,0.37875,0.375625,0.375625,0.375625,0.374375,0.37,0.36875,0,0.36625,0.3625,0.36,0.356875,0.355,0.35375,0.350625,0.346875,0.34375,0.3375,0.3325,0.33,0.328125,0.328125,0.329375,0.33,0.330625,0.330625,0.33,0.32875,0.328125,0.328125,0.328125,0.328125,0.32875,0.33,0.33,0.33,0.33,0.32875,0.328125,0.3275,0,0.3275,0.32875,0.329375,0.33,0.330625,0.330625,0.33,0.32875,0.328125,0.328125,0.3275,0.328125,0.32875,0.33,0.330625,0.33,0.323125,0.310625,0.300625,0.28875,0.283125,0.288125,0.30375,0.330625,0.37125,0.420625,0.4725,0.524375,0.57625,0.628125,0.680625,0.734375,0,0.78625,0.82875,0.859375,0.878125,0.88875,0.890625,0.880625,0.86,0.835625,0.806875,0.76875,0.723125,0.671875,0.619375,0.56625,0.5125,0.459375,0.405,0.3475,0.289375,0.24,0.213125,0.213125,0.2375,0.266875,0.293125,0.314375,0.32625,0.3275,0.3275,0.32875,0.330625,0,0.330625,0.330625,0.33,0.329375,0.32875,0.3275,0.328125,0.32875,0.32875,0.33,0.330625,0.330625,0.33,0.32875,0.32875,0.328125,0.3275,0.328125,0.32875,0.33,0.33,0.33,0.33,0.329375,0.328125,0.3275,0.328125,0.32875,0.329375,0.330625,0.330625,0.330625,0,0.33,0.329375,0.328125,0.33,0.333125,0.334375,0.3375,0.34125,0.34375,0.3475,0.346875,0.34625,0.348125,0.35,0.350625,0.35125,0.355,0.35875,0.36,0.36,0.3625,0.363125,0.36375,0.36625,0.371875,0.378125,0.38375,0.3875,0.391875,0.3975,0.403125,0.40875,0,0.414375,0.419375,0.425,0.43125,0.4375,0.44375,0.45,0.455625,0.46125,0.463125,0.465625,0.4675,0.470625,0.471875,0.474375,0.47875,0.48,0.48,0.478125,0.47375,0.4725,0.47,0.46625,0.46375,0.46125,0.459375,0.456875,0.45375,0.4475,0.44125,0.438125,0.43375,0,0.428125,0.425625,0.4225,0.4175,0.4125,0.40625,0.40125,0.398125,0.39375,0.39,0.38625,0.381875,0.380625,0.3775,0.375,0.371875,0.36875,0.365,0.36125,0.356875,0.355625,0.355,0.353125,0.35125,0.346875,0.343125,0.34,0.33625,0.334375,0.333125,0.331875,0.32875,0,0.32875,0.33,0.330625,0.330625,0.330625,0.329375,0.32875,0.328125,0.3275,0.3275,0.32875,0.33,0.330625,0.33,0.33,0.329375,0.32875,0.328125,0.328125,0.328125,0.32875,0.33,0.330625,0.33125,0.330625,0.33,0.32875,0.328125,0.328125,0.328125,0.32875,0.33,0,0.330625,0.33125,0.330625,0.329375,0.32875,0.328125,0.3275,0.328125,0.32875,0.329375,0.330625,0.330625,0.33,0.33,0.32875,0.3275,0.3275,0.3275,0.32875,0.329375,0.33,0.330625,0.33,0.33,0.32875,0.32875,0.328125,0.328125,0.328125,0.329375,0.330625,0.330625,0,0.33125,0.33,0.32875,0.3275,0.3275,0.3275,0.328125,0.33,0.330625,0.33,0.330625,0.33,0.329375,0.328125,0.328125,0.32875,0.329375,0.329375,0.33,0.33,0.329375,0.329375,0.329375,0.328125,0.3275,0.328125,0.32875,0.329375,0.330625,0.330625,0.330625,0.329375,0,0.32875,0.328125,0.328125,0.328125,0.328125,0.329375,0.330625,0.330625,0.33,0.329375,0.32875,0.328125,0.328125,0.328125,0.32875,0.329375,0.33,0.330625,0.330625,0.33,0.32875,0.32875,0.328125,0.328125,0.328125,0.329375,0.329375,0.33,0.330625,0.33,0.32875,0.328125,0,0.328125,0.3275,0.328125,0.329375,0.330625,0.330625,0.33,0.329375,0.329375,0.328125,0.3275,0.328125,0.32875,0.329375,0.329375,0.33,0.330625,0.329375,0.32875,0.328125,0.3275,0.3275,0.328125,0.329375,0.330625,0.330625,0.33,0.33,0.32875,0.3275,0.3275,0.328125,0,0.32875,0.329375,0.33,0.330625,0.33125,0.33,0.32875,0.328125,0.3275,0.3275,0.328125,0.329375,0.33,0.330625,0.33,0.329375,0.32875,0.328125,0.3275,0.328125,0.3325,0.33875,0.341875,0.34625,0.3525,0.360625,0.364375,0.3675,0.371875,0.373125,0.374375,0.37625,0,0.38,0.381875,0.381875,0.38125,0.38,0.37875,0.379375,0.38,0.380625,0.37875,0.37625,0.375625,0.375625,0.373125,0.369375,0.3675,0.365625,0.363125,0.36,0.358125,0.355625,0.3525,0.35,0.346875,0.343125,0.336875,0.333125,0.330625,0.32875,0.329375,0.330625,0.330625,0,0.33,0.33,0.329375,0.328125,0.328125,0.328125,0.328125,0.329375,0.33,0.33,0.330625,0.330625,0.329375,0.32875,0.3275,0.3275,0.328125,0.328125,0.33,0.33125,0.330625,0.329375,0.32875,0.32875,0.328125,0.328125,0.32875,0.329375,0.33,0.330625,0.330625,0.329375,0,0.321875,0.309375,0.299375,0.288125,0.283125,0.289375,0.305,0.3325,0.373125,0.4225,0.474375,0.52625,0.57875,0.63125,0.684375,0.738125,0.789375,0.83125,0.860625,0.878125,0.88875,0.889375,0.878125,0.85875,0.834375,0.805625,0.766875,0.72125,0.67,0.61625,0.563125,0.509375,0,0.45625,0.401875,0.344375,0.286875,0.238125,0.2125,0.215,0.23875,0.2675,0.294375,0.315,0.32625,0.328125,0.32875,0.33,0.330625,0.330625,0.33,0.329375,0.32875,0.328125,0.3275,0.328125,0.328125,0.329375,0.330625,0.330625,0.33,0.329375,0.32875,0.328125,0.328125,0,0.328125,0.32875,0.33,0.33,0.33,0.33,0.329375,0.328125,0.328125,0.328125,0.328125,0.32875,0.33,0.33,0.330625,0.33,0.32875,0.32875,0.328125,0.33,0.3325,0.334375,0.338125,0.34125,0.34375,0.346875,0.34625,0.345625,0.3475,0.35,0.350625,0.35125,0,0.355625,0.358125,0.35875,0.359375,0.361875,0.36375,0.363125,0.36625,0.3725,0.37875,0.384375,0.388125,0.3925,0.39875,0.403125,0.408125,0.41375,0.419375,0.425,0.431875,0.43875,0.445,0.45125,0.456875,0.46125,0.4625,0.465,0.466875,0.470625,0.4725,0.475625,0.48,0,0.48,0.48,0.4775,0.4725,0.47125,0.469375,0.46625,0.464375,0.461875,0.45875,0.455625,0.453125,0.446875,0.440625,0.436875,0.433125,0.428125,0.425625,0.4225,0.418125,0.4125,0.405625,0.400625,0.3975,0.3925,0.39,0.38625,0.381875,0.380625,0.3775,0.375,0.37125,0,0.36875,0.36375,0.360625,0.356875,0.35625,0.355625,0.353125,0.35125,0.34625,0.341875,0.339375,0.335625,0.33375,0.333125,0.331875,0.32875,0.329375,0.330625,0.330625,0.330625,0.33,0.329375,0.32875,0.3275,0.328125,0.328125,0.329375,0.33,0.33125,0.33125,0.330625,0.329375,0,0.32875,0.3275,0.3275,0.328125,0.329375,0.33,0.330625,0.330625,0.33,0.329375,0.32875,0.328125,0.328125,0.328125,0.329375,0.330625,0.330625,0.33,0.329375,0.32875,0.3275,0.328125,0.3275,0.328125,0.329375,0.33,0.33,0.33,0.33,0.32875,0.328125,0.328125,0,0.328125,0.328125,0.329375,0.329375,0.33,0.330625,0.330625,0.33,0.32875,0.328125,0.3275,0.32875,0.329375,0.33,0.33,0.33,0.33,0.329375,0.328125,0.3275,0.32875,0.32875,0.329375,0.33,0.330625,0.330625,0.329375,0.32875,0.328125,0.328125,0.3275,0.32875,0,0.329375,0.33,0.330625,0.330625,0.33,0.329375,0.328125,0.328125,0.328125,0.328125,0.32875,0.33,0.330625,0.33125,0.33,0.32875,0.32875,0.328125,0.328125,0.32875,0.32875,0.33,0.330625,0.330625,0.33,0.329375,0.32875,0.328125,0.3275,0.328125,0.329375,0.33,0,0.330625,0.330625,0.33,0.329375,0.32875,0.32875,0.328125,0.328125,0.32875,0.329375,0.330625,0.330625,0.330625,0.33,0.329375,0.328125,0.328125,0.32875,0.329375,0.33,0.33125,0.33125,0.330625,0.329375,0.32875,0.328125,0.328125,0.328125,0.32875,0.33,0.330625,0.330625,0,0.330625,0.329375,0.32875,0.328125,0.3275,0.32875,0.329375,0.329375,0.33,0.330625,0.330625,0.329375,0.32875,0.3275,0.328125,0.32875,0.329375,0.330625,0.330625,0.330625,0.334375,0.339375,0.340625,0.344375,0.350625,0.359375,0.36375,0.369375,0.374375,0.375625,0.375625,0.37625,0,0.37875,0.379375,0.37875,0.379375,0.380625,0.380625,0.381875,0.3825,0.381875,0.37875,0.37375,0.373125,0.373125,0.37125,0.369375,0.369375,0.368125,0.365,0.361875,0.358125,0.35375,0.35,0.3475,0.345,0.3425,0.338125,0.335625,0.3325,0.33,0.329375,0.32875,0.3275,0,0.328125,0.32875,0.32875,0.33,0.330625,0.330625,0.33,0.33,0.32875,0.328125,0.328125,0.328125,0.32875,0.33,0.33,0.330625,0.330625,0.32875,0.328125,0.328125,0.3275,0.328125,0.32875,0.33,0.33,0.330625,0.330625,0.33,0.32875,0.3275,0.3275,0.3275,0,0.32,0.31,0.30125,0.29,0.285,0.29125,0.306875,0.33375,0.375,0.425625,0.479375,0.5325,0.585625,0.63875,0.690625,0.743125,0.793125,0.8325,0.86,0.876875,0.88875,0.89,0.88,0.859375,0.834375,0.803125,0.7625,0.714375,0.6625,0.61,0.558125,0.505625,0,0.45375,0.399375,0.34125,0.283125,0.234375,0.209375,0.21375,0.239375,0.26875,0.29625,0.319375,0.33,0.33,0.33,0.329375,0.32875,0.328125,0.328125,0.32875,0.33,0.330625,0.330625,0.330625,0.33,0.329375,0.32875,0.328125,0.328125,0.32875,0.33,0.33,0.330625,0,0.330625,0.33,0.32875,0.328125,0.328125,0.328125,0.328125,0.33,0.330625,0.330625,0.330625,0.33,0.329375,0.328125,0.3275,0.3275,0.32875,0.329375,0.330625,0.3325,0.335625,0.335625,0.3375,0.339375,0.34125,0.34375,0.345625,0.346875,0.35,0.353125,0.35375,0.35375,0,0.35625,0.356875,0.356875,0.358125,0.36125,0.363125,0.365,0.369375,0.374375,0.380625,0.385,0.386875,0.390625,0.396875,0.403125,0.41,0.41625,0.4225,0.42875,0.434375,0.438125,0.44375,0.45,0.455625,0.46,0.46375,0.4675,0.470625,0.474375,0.474375,0.475625,0.4775,0,0.476875,0.4775,0.475625,0.473125,0.473125,0.4725,0.469375,0.465625,0.461875,0.4575,0.45375,0.450625,0.445625,0.440625,0.43875,0.435625,0.430625,0.4275,0.4225,0.415625,0.409375,0.4025,0.398125,0.396875,0.394375,0.393125,0.38875,0.38375,0.380625,0.375625,0.3725,0.36875,0,0.36625,0.36375,0.3625,0.36,0.359375,0.35625,0.3525,0.349375,0.34375,0.34,0.3375,0.335625,0.335,0.335,0.33375,0.33,0.329375,0.328125,0.3275,0.328125,0.32875,0.329375,0.33,0.330625,0.33,0.33,0.329375,0.32875,0.328125,0.3275,0.328125,0.32875,0,0.33,0.33125,0.33125,0.330625,0.33,0.32875,0.3275,0.328125,0.328125,0.32875,0.33,0.33125,0.330625,0.33,0.32875,0.328125,0.328125,0.328125,0.328125,0.32875,0.329375,0.330625,0.330625,0.330625,0.329375,0.328125,0.3275,0.3275,0.3275,0.32875,0.329375,0.330625,0,0.330625,0.33,0.329375,0.329375,0.32875,0.3275,0.328125,0.32875,0.33,0.330625,0.330625,0.33,0.329375,0.32875,0.328125,0.328125,0.328125,0.32875,0.33,0.330625,0.330625,0.33,0.329375,0.32875,0.328125,0.3275,0.328125,0.32875,0.33,0.330625,0.33125,0.330625,0,0.329375,0.328125,0.3275,0.3275,0.328125,0.32875,0.329375,0.33,0.330625,0.33,0.329375,0.32875,0.3275,0.3275,0.328125,0.32875,0.33,0.330625,0.33125,0.330625,0.33,0.32875,0.32875,0.328125,0.328125,0.32875,0.330625,0.335625,0.340625,0.3425,0.3475,0.35375,0,0.360625,0.36375,0.36875,0.374375,0.375625,0.37625,0.378125,0.380625,0.380625,0.380625,0.379375,0.379375,0.379375,0.380625,0.381875,0.381875,0.37875,0.375625,0.375,0.374375,0.370625,0.368125,0.368125,0.36625,0.364375,0.36125,0.35875,0.355,0.351875,0.348125,0.344375,0.34,0,0.335,0.333125,0.33125,0.330625,0.330625,0.33125,0.33,0.329375,0.32875,0.328125,0.328125,0.32875,0.329375,0.33,0.330625,0.33,0.33,0.329375,0.32875,0.328125,0.328125,0.32875,0.33,0.330625,0.330625,0.330625,0.33,0.32875,0.328125,0.3275,0.328125,0.32875,0,0.329375,0.33,0.330625,0.330625,0.33,0.329375,0.326875,0.316875,0.30625,0.296875,0.2875,0.28625,0.295,0.3125,0.343125,0.386875,0.4375,0.48875,0.541875,0.595,0.649375,0.7025,0.755,0.804375,0.84125,0.86625,0.880625,0.88875,0.8875,0.874375,0.853125,0.82875,0,0.79625,0.754375,0.705,0.6525,0.59875,0.545625,0.493125,0.44,0.38625,0.329375,0.271875,0.228125,0.21,0.219375,0.24625,0.275,0.300625,0.320625,0.32875,0.33,0.33,0.330625,0.33,0.329375,0.32875,0.328125,0.32875,0.32875,0.32875,0.33,0.330625,0.330625,0,0.33,0.329375,0.328125,0.328125,0.328125,0.32875,0.329375,0.33,0.33,0.330625,0.33,0.32875,0.32875,0.328125,0.328125,0.32875,0.329375,0.33,0.330625,0.330625,0.329375,0.329375,0.328125,0.328125,0.328125,0.32875,0.331875,0.335,0.336875,0.34,0.341875,0.344375,0,0.345,0.345,0.345625,0.349375,0.3525,0.353125,0.354375,0.358125,0.35875,0.358125,0.35875,0.36125,0.361875,0.36375,0.369375,0.375625,0.3825,0.386875,0.38875,0.393125,0.398125,0.40375,0.409375,0.415625,0.4225,0.42875,0.435,0.44125,0.44625,0.451875,0.4575,0.460625,0,0.4625,0.465625,0.469375,0.47375,0.475,0.476875,0.479375,0.479375,0.4775,0.474375,0.471875,0.47125,0.469375,0.468125,0.465,0.4625,0.45875,0.455,0.45,0.44375,0.43875,0.436875,0.433125,0.429375,0.4275,0.4225,0.41625,0.409375,0.4025,0.398125,0.395625,0.3925,0,0.39,0.38625,0.383125,0.380625,0.37625,0.3725,0.369375,0.365625,0.361875,0.360625,0.358125,0.35875,0.35625,0.353125,0.350625,0.344375,0.34,0.336875,0.334375,0.33375,0.33375,0.3325,0.330625,0.33125,0.330625,0.329375,0.329375,0.32875,0.328125,0.328125,0.32875,0.33,0,0.330625,0.33125,0.33,0.329375,0.32875,0.328125,0.328125,0.328125,0.32875,0.329375,0.330625,0.330625,0.330625,0.33,0.329375,0.3275,0.328125,0.32875,0.329375,0.329375,0.330625,0.330625,0.330625,0.329375,0.32875,0.328125,0.328125,0.328125,0.32875,0.329375,0.330625,0.330625,0,0.33,0.32875,0.32875,0.328125,0.328125,0.328125,0.32875,0.329375,0.330625,0.330625,0.330625,0.33,0.32875,0.328125,0.328125,0.328125,0.328125,0.33,0.33125,0.330625,0.33,0.329375,0.32875,0.3275,0.3275,0.328125,0.32875,0.329375,0.33,0.330625,0.330625,0.33,0,0.329375,0.328125,0.3275,0.328125,0.32875,0.329375,0.33,0.33,0.33,0.33,0.32875,0.328125,0.3275,0.328125,0.32875,0.33,0.330625,0.330625,0.330625,0.33,0.329375,0.32875,0.32875,0.328125,0.328125,0.329375,0.330625,0.330625,0.330625,0.33,0.329375,0.328125,0,0.328125,0.32875,0.32875,0.329375,0.33,0.330625,0.330625,0.329375,0.329375,0.328125,0.3275,0.3275,0.32875,0.329375,0.330625,0.330625,0.330625,0.33,0.329375,0.32875,0.3275,0.328125,0.32875,0.329375,0.33,0.330625,0.330625,0.33,0.329375,0.32875,0.328125,0.328125,0,0.32875,0.33,0.330625,0.33125,0.33125,0.33,0.329375,0.328125,0.328125,0.328125,0.32875,0.329375,0.33,0.330625,0.330625,0.33,0.32875,0.328125,0.328125,0.32875,0.32875,0.33,0.330625,0.330625,0.330625,0.330625,0.33,0.328125,0.3275,0.3275,0.32875,0.329375,0,0.33,0.330625,0.33125,0.33,0.329375,0.328125,0.3275,0.32875,0.32875,0.33,0.330625,0.330625,0.33125,0.330625,0.329375,0.32875,0.32875,0.328125,0.328125,0.329375,0.330625,0.330625,0.330625,0.330625,0.33,0.328125,0.328125,0.32875,0.32875,0.333125,0.339375,0.3425,0,0.34625,0.351875,0.359375,0.3625,0.36625,0.37125,0.37375,0.375,0.376875,0.380625,0.3825,0.381875,0.380625,0.379375,0.379375,0.38,0.38,0.380625,0.380625,0.3775,0.37625,0.375625,0.37375,0.37,0.36875,0.366875,0.36375,0.361875,0.359375,0.3575,0.35375,0.35125,0,0.3475,0.34375,0.3375,0.33375,0.33125,0.329375,0.330625,0.330625,0.33125,0.33,0.329375,0.32875,0.328125,0.32875,0.32875,0.329375,0.33,0.330625,0.33,0.33,0.33,0.32875,0.328125,0.328125,0.32875,0.32875,0.33,0.330625,0.330625,0.330625,0.33,0.328125,0,0.328125,0.328125,0.328125,0.32875,0.329375,0.330625,0.330625,0.330625,0.33,0.32375,0.31125,0.301875,0.29125,0.284375,0.28875,0.3025,0.326875,0.364375,0.4125,0.464375,0.51625,0.569375,0.621875,0.675,0.729375,0.781875,0.825,0.85625,0.875625,0.886875,0.89,0.881875,0,0.863125,0.84,0.8125,0.77625,0.730625,0.679375,0.62625,0.573125,0.519375,0.465625,0.411875,0.355625,0.298125,0.24625,0.215625,0.21125,0.233125,0.26125,0.28875,0.311875,0.32625,0.32875,0.33,0.330625,0.330625,0.330625,0.329375,0.32875,0.328125,0.3275,0.328125,0.328125,0,0.32875,0.33,0.330625,0.330625,0.33,0.32875,0.328125,0.328125,0.32875,0.329375,0.329375,0.33,0.330625,0.33125,0.33,0.329375,0.328125,0.328125,0.328125,0.32875,0.33,0.330625,0.33125,0.330625,0.329375,0.32875,0.328125,0.328125,0.33,0.33375,0.335,0.3375,0,0.34125,0.343125,0.34625,0.34625,0.345,0.346875,0.350625,0.351875,0.3525,0.35625,0.359375,0.35875,0.359375,0.36125,0.3625,0.3625,0.365625,0.371875,0.37875,0.385,0.3875,0.390625,0.39625,0.40125,0.406875,0.4125,0.41875,0.425,0.431875,0.43875,0.445,0.450625,0,0.455625,0.46,0.46125,0.465,0.466875,0.47125,0.47375,0.475625,0.479375,0.48,0.479375,0.476875,0.4725,0.47125,0.47,0.4675,0.465625,0.463125,0.460625,0.456875,0.453125,0.4475,0.440625,0.436875,0.434375,0.429375,0.426875,0.425,0.419375,0.413125,0.406875,0.400625,0,0.396875,0.39375,0.390625,0.388125,0.38375,0.381875,0.37875,0.375625,0.37125,0.368125,0.36375,0.36125,0.358125,0.356875,0.356875,0.354375,0.3525,0.34875,0.343125,0.339375,0.335,0.333125,0.33375,0.333125,0.330625,0.33,0.330625,0.33,0.329375,0.329375,0.32875,0.328125,0,0.328125,0.328125,0.32875,0.33,0.330625,0.330625,0.33,0.329375,0.328125,0.3275,0.328125,0.32875,0.329375,0.33,0.33,0.330625,0.330625,0.329375,0.328125,0.3275,0.328125,0.328125,0.32875,0.329375,0.330625,0.330625,0.330625,0.33,0.32875,0.328125,0.328125,0.328125,0,0.32875,0.33,0.330625,0.330625,0.33,0.329375,0.32875,0.328125,0.3275,0.328125,0.329375,0.33,0.330625,0.33,0.329375,0.329375,0.32875,0.328125,0.328125,0.328125,0.329375,0.33,0.330625,0.330625,0.330625,0.329375,0.328125,0.3275,0.326875,0.32875,0.329375,0.330625,0,0.33125,0.330625,0.329375,0.32875,0.328125,0.32875,0.328125,0.328125,0.32875,0.33,0.330625,0.330625,0.33,0.329375,0.328125,0.3275,0.3275,0.328125,0.32875,0.329375,0.33,0.330625,0.33,0.329375,0.32875,0.3275,0.3275,0.328125,0.32875,0.329375,0.33,0.330625,0,0.33,0.32875,0.32875,0.328125,0.3275,0.3275,0.32875,0.33,0.33,0.330625,0.33,0.329375,0.32875,0.328125,0.328125,0.32875,0.329375,0.33,0.330625,0.330625,0.33,0.329375,0.32875,0.3275,0.3275,0.328125,0.32875,0.33,0.330625,0.330625,0.330625,0.33,0,0.32875,0.328125,0.328125,0.328125,0.329375,0.33,0.330625,0.330625,0.33,0.329375,0.328125,0.3275,0.328125,0.329375,0.335625,0.34,0.34375,0.349375,0.35625,0.363125,0.365,0.369375,0.3725,0.37375,0.375,0.378125,0.38125,0.381875,0.38125,0.380625,0.38,0.38,0,0.38,0.38,0.38,0.3775,0.375625,0.375625,0.375625,0.3725,0.369375,0.368125,0.36375,0.3625,0.36,0.3575,0.355,0.3525,0.34875,0.345625,0.340625,0.335,0.3325,0.32875,0.32875,0.33,0.330625,0.330625,0.33,0.329375,0.32875,0.328125,0.328125,0.328125,0,0.32875,0.329375,0.330625,0.330625,0.330625,0.33,0.32875,0.328125,0.3275,0.3275,0.328125,0.329375,0.33,0.33,0.330625,0.33,0.329375,0.32875,0.328125,0.32875,0.32875,0.329375,0.33,0.330625,0.330625,0.3275,0.31625,0.305625,0.295,0.285,0.285,0.295625,0,0.315625,0.349375,0.395,0.44625,0.498125,0.55,0.601875,0.654375,0.706875,0.76125,0.809375,0.845625,0.87,0.88375,0.89,0.885625,0.87125,0.84875,0.8225,0.789375,0.7475,0.699375,0.646875,0.59375,0.54,0.485625,0.4325,0.376875,0.31875,0.26375,0.22375,0.21,0,0.22375,0.251875,0.279375,0.30375,0.321875,0.3275,0.3275,0.329375,0.33,0.330625,0.33,0.33,0.32875,0.328125,0.328125,0.328125,0.32875,0.329375,0.33,0.330625,0.330625,0.33,0.329375,0.32875,0.3275,0.328125,0.32875,0.329375,0.33,0.330625,0.33,0.33,0,0.329375,0.328125,0.3275,0.3275,0.328125,0.329375,0.330625,0.330625,0.33,0.33,0.32875,0.328125,0.328125,0.33125,0.33375,0.335625,0.34,0.3425,0.345625,0.346875,0.34625,0.345625,0.34875,0.350625,0.351875,0.35375,0.358125,0.359375,0.359375,0.360625,0.363125,0.363125,0,0.364375,0.36875,0.375625,0.381875,0.386875,0.39,0.395,0.400625,0.405625,0.410625,0.41625,0.4225,0.42875,0.435625,0.4425,0.448125,0.454375,0.459375,0.461875,0.46375,0.465625,0.469375,0.471875,0.47375,0.4775,0.48,0.48,0.479375,0.475,0.471875,0.47125,0.46875,0,0.46625,0.463125,0.46125,0.458125,0.455625,0.45125,0.444375,0.43875,0.43625,0.43125,0.42625,0.425,0.42125,0.41625,0.41,0.40375,0.399375,0.39625,0.391875,0.389375,0.385,0.381875,0.38,0.376875,0.37375,0.37,0.36625,0.363125,0.359375,0.356875,0.35625,0.354375,0,0.3525,0.35,0.345,0.34125,0.3375,0.33375,0.333125,0.3325,0.330625,0.329375,0.33,0.33,0.330625,0.33,0.32875,0.32875,0.328125,0.3275,0.328125,0.32875,0.33,0.330625,0.330625,0.330625,0.33,0.32875,0.328125,0.3275,0.328125,0.329375,0.33,0.33,0,0.330625,0.330625,0.33,0.32875,0.328125,0.3275,0.328125,0.32875,0.33,0.330625,0.330625,0.33125,0.33,0.32875,0.328125,0.3275,0.328125,0.329375,0.33,0.330625,0.330625,0.33,0.33,0.329375,0.328125,0.328125,0.328125,0.32875,0.329375,0.330625,0.330625,0.330625,0,0.33,0.32875,0.32875,0.32875,0.328125,0.32875,0.33,0.330625,0.330625,0.330625,0.329375,0.32875,0.328125,0.328125,0.32875,0.32875,0.329375,0.33,0.33,0.33,0.33,0.32875,0.32875,0.328125,0.328125,0.32875,0.33,0.330625,0.330625,0.330625,0.329375,0.32875,0,0.328125,0.328125,0.328125,0.32875,0.329375,0.330625,0.330625,0.330625,0.329375,0.32875,0.32875,0.328125,0.3275,0.32875,0.33,0.330625,0.33125,0.33125,0.33,0.329375,0.328125,0.328125,0.32875,0.32875,0.33,0.330625,0.330625,0.330625,0.33,0.329375,0.32875,0.328125,0,0.32875,0.32875,0.329375,0.330625,0.330625,0.330625,0.33,0.329375,0.32875,0.32875,0.328125,0.32875,0.33,0.330625,0.33125,0.330625,0.33,0.32875,0.328125,0.328125,0.328125,0.329375,0.33,0.330625,0.330625,0.330625,0.330625,0.329375,0.328125,0.328125,0.333125,0.33875,0,0.341875,0.3475,0.354375,0.361875,0.365,0.36875,0.3725,0.373125,0.37375,0.37625,0.38,0.381875,0.3825,0.3825,0.38125,0.380625,0.38,0.379375,0.38,0.378125,0.37625,0.37625,0.37625,0.37375,0.37,0.36875,0.366875,0.363125,0.360625,0.358125,0.355,0.353125,0,0.350625,0.348125,0.34375,0.3375,0.33375,0.330625,0.328125,0.328125,0.32875,0.329375,0.330625,0.330625,0.33,0.329375,0.32875,0.32875,0.32875,0.32875,0.329375,0.330625,0.330625,0.330625,0.33,0.329375,0.328125,0.3275,0.328125,0.32875,0.329375,0.330625,0.330625,0.330625,0,0.330625,0.329375,0.32875,0.3275,0.328125,0.32875,0.32875,0.33,0.33125,0.33,0.321875,0.31,0.3,0.288125,0.2825,0.29,0.305625,0.334375,0.37625,0.426875,0.47875,0.530625,0.583125,0.635,0.6875,0.740625,0.791875,0.833125,0.8625,0.879375,0.889375,0.89,0,0.87875,0.8575,0.833125,0.803125,0.76375,0.718125,0.666875,0.61375,0.560625,0.5075,0.45375,0.39875,0.34125,0.2825,0.235,0.21125,0.21625,0.24125,0.27,0.29625,0.316875,0.3275,0.328125,0.32875,0.329375,0.330625,0.33125,0.330625,0.330625,0.33,0.32875,0.328125,0,0.328125,0.32875,0.329375,0.33,0.330625,0.330625,0.33,0.329375,0.32875,0.328125,0.328125,0.328125,0.32875,0.32875,0.330625,0.330625,0.330625,0.33,0.32875,0.3275,0.328125,0.328125,0.329375,0.33,0.33125,0.330625,0.33,0.329375,0.32875,0.330625,0.333125,0.33375,0,0.336875,0.34125,0.344375,0.3475,0.3475,0.3475,0.34875,0.35,0.35125,0.3525,0.35625,0.358125,0.35875,0.36,0.363125,0.364375,0.364375,0.3675,0.3725,0.37875,0.384375,0.3875,0.3925,0.399375,0.404375,0.409375,0.414375,0.42,0.42625,0.431875,0.438125,0.445,0,0.451875,0.4575,0.461875,0.46375,0.46625,0.468125,0.47125,0.471875,0.474375,0.47875,0.480625,0.48,0.4775,0.47375,0.4725,0.469375,0.46625,0.463125,0.46,0.45875,0.456875,0.453125,0.4475,0.44125,0.4375,0.433125,0.428125,0.425,0.4225,0.416875,0.41125,0.40625,0,0.40125,0.398125,0.393125,0.390625,0.38625,0.381875,0.38,0.3775,0.375,0.371875,0.369375,0.365,0.36125,0.3575,0.35625,0.355,0.3525,0.350625,0.34625,0.3425,0.34,0.335625,0.334375,0.33375,0.33125,0.328125,0.328125,0.329375,0.33,0.330625,0.330625,0.33,0,0.329375,0.32875,0.328125,0.3275,0.328125,0.329375,0.330625,0.330625,0.33,0.329375,0.32875,0.328125,0.328125,0.328125,0.328125,0.329375,0.330625,0.330625,0.33,0.329375,0.32875,0.32875,0.328125,0.328125,0.32875,0.329375,0.330625,0.33125,0.330625,0.329375,0.32875,0.328125,0,0.328125,0.3275,0.328125,0.33,0.330625,0.330625,0.33,0.329375,0.32875,0.328125,0.328125,0.328125,0.32875,0.33,0.330625,0.330625,0.330625,0.33,0.32875,0.328125,0.328125,0.328125,0.32875,0.329375,0.33,0.330625,0.330625,0.33,0.32875,0.328125,0.3275,0.3275,0,0.32875,0.329375,0.33,0.330625,0.330625,0.33,0.329375,0.328125,0.328125,0.3275,0.328125,0.329375,0.330625,0.330625,0.330625,0.33,0.329375,0.32875,0.328125,0.328125,0.32875,0.329375,0.330625,0.330625,0.330625,0.33,0.33,0.32875,0.328125,0.328125,0.32875,0.329375,0,0.330625,0.330625,0.330625,0.33,0.32875,0.328125,0.328125,0.328125,0.328125,0.329375,0.33,0.33,0.330625,0.330625,0.329375,0.32875,0.328125,0.3275,0.328125,0.329375,0.33,0.330625,0.330625,0.329375,0.33,0.32875,0.328125,0.328125,0.32875,0.32875,0.33,0.330625,0,0.33125,0.330625,0.329375,0.32875,0.328125,0.328125,0.328125,0.32875,0.33,0.330625,0.330625,0.33,0.32875,0.328125,0.33125,0.336875,0.340625,0.34375,0.35,0.35875,0.364375,0.3675,0.371875,0.37375,0.37375,0.37375,0.3775,0.380625,0.38125,0.381875,0.381875,0.381875,0,0.38125,0.38,0.379375,0.37875,0.375625,0.374375,0.375625,0.375625,0.371875,0.370625,0.36875,0.364375,0.36125,0.358125,0.355625,0.3525,0.35125,0.348125,0.345625,0.340625,0.33625,0.3325,0.32875,0.328125,0.328125,0.329375,0.330625,0.33125,0.330625,0.330625,0.329375,0.32875,0,0.3275,0.3275,0.328125,0.32875,0.33,0.330625,0.33125,0.330625,0.33,0.329375,0.32875,0.328125,0.32875,0.32875,0.33,0.33,0.33,0.33,0.33,0.329375,0.328125,0.328125,0.328125,0.32875,0.33,0.330625,0.32625,0.314375,0.305,0.293125,0.28375,0.285625,0,0.298125,0.32125,0.359375,0.4075,0.459375,0.511875,0.56375,0.615625,0.666875,0.72,0.7725,0.818125,0.851875,0.87375,0.886875,0.891875,0.885,0.866875,0.8425,0.814375,0.77875,0.735,0.685625,0.63375,0.58125,0.528125,0.475,0.42,0.3625,0.304375,0.25,0.216875,0,0.21,0.230625,0.26,0.2875,0.310625,0.325625,0.3275,0.3275,0.32875,0.328125,0.32875,0.33,0.330625,0.330625,0.329375,0.32875,0.32875,0.328125,0.328125,0.329375,0.33,0.33,0.330625,0.330625,0.33,0.32875,0.328125,0.328125,0.328125,0.328125,0.32875,0.330625,0,0.330625,0.330625,0.329375,0.32875,0.3275,0.3275,0.328125,0.329375,0.33,0.33,0.330625,0.33,0.33,0.33,0.3325,0.333125,0.335,0.33875,0.341875,0.34625,0.3475,0.3475,0.34875,0.35125,0.35125,0.350625,0.353125,0.356875,0.358125,0.359375,0.361875,0.364375,0,0.364375,0.36625,0.37125,0.37625,0.3825,0.385625,0.39,0.395625,0.4025,0.408125,0.41375,0.41875,0.42375,0.429375,0.435625,0.441875,0.448125,0.455,0.460625,0.463125,0.46625,0.4675,0.470625,0.471875,0.4725,0.47625,0.47875,0.479375,0.47875,0.475,0.47375,0.47125,0,0.466875,0.464375,0.46125,0.45875,0.45625,0.454375,0.45,0.44375,0.439375,0.435625,0.429375,0.425625,0.4225,0.418125,0.413125,0.4075,0.4025,0.399375,0.395625,0.391875,0.388125,0.381875,0.379375,0.376875,0.374375,0.371875,0.369375,0.366875,0.36375,0.36,0.356875,0.355625,0,0.3525,0.350625,0.346875,0.343125,0.34125,0.338125,0.335625,0.335,0.333125,0.32875,0.326875,0.328125,0.329375,0.33,0.330625,0.330625,0.33,0.329375,0.32875,0.328125,0.328125,0.32875,0.329375,0.330625,0.330625,0.330625,0.33,0.329375,0.32875,0.328125,0.328125,0.328125,0,0.329375,0.330625,0.330625,0.33125,0.330625,0.329375,0.32875,0.328125,0.328125,0.32875,0.329375,0.330625,0.330625,0.330625,0.330625,0.33,0.32875,0.328125,0.328125,0.328125,0.329375,0.330625,0.330625,0.33125,0.33,0.33,0.32875,0.328125,0.3275,0.328125,0.32875,0.33,0,0.330625,0.330625,0.33,0.329375,0.328125,0.328125,0.328125,0.328125,0.329375,0.330625,0.33125,0.330625,0.330625,0.329375,0.328125,0.3275,0.3275,0.32875,0.32875,0.33,0.330625,0.330625,0.33,0.329375,0.32875,0.32875,0.328125,0.32875,0.33,0.330625,0.330625,0.33125,0,0.330625,0.33,0.32875,0.32875,0.328125,0.32875,0.329375,0.33,0.330625,0.330625,0.330625,0.33,0.32875,0.328125,0.328125,0.32875,0.32875,0.329375,0.330625,0.330625,0.330625,0.33,0.32875,0.328125,0.3275,0.3275,0.32875,0.33,0.330625,0.330625,0.330625,0.33,0,0.32875,0.32875,0.328125,0.328125,0.329375,0.33,0.33,0.330625,0.330625,0.33,0.329375,0.32875,0.328125,0.32875,0.329375,0.33,0.330625,0.33125,0.33,0.329375,0.32875,0.328125,0.3275,0.32875,0.329375,0.33,0.33,0.330625,0.330625,0.33,0.330625,0.335,0,0.338125,0.34125,0.346875,0.355,0.363125,0.36625,0.371875,0.375,0.374375,0.37375,0.37625,0.38,0.38,0.380625,0.38125,0.3825,0.381875,0.38125,0.38,0.379375,0.376875,0.374375,0.375625,0.375625,0.37375,0.37125,0.37,0.366875,0.363125,0.35875,0.355625,0.353125,0,0.35125,0.34875,0.346875,0.343125,0.3375,0.335,0.33125,0.32875,0.328125,0.3275,0.32875,0.33,0.33125,0.33125,0.330625,0.329375,0.32875,0.32875,0.328125,0.328125,0.32875,0.329375,0.329375,0.330625,0.330625,0.329375,0.329375,0.328125,0.328125,0.328125,0.32875,0.329375,0,0.330625,0.330625,0.330625,0.329375,0.32875,0.32875,0.328125,0.328125,0.32875,0.329375,0.32875,0.319375,0.30875,0.298125,0.286875,0.28375,0.291875,0.310625,0.3425,0.386875,0.439375,0.4925,0.545,0.596875,0.648125,0.700625,0.7525,0.801875,0.84,0.86625,0.881875,0.89125,0,0.88875,0.875,0.853125,0.82625,0.793125,0.751875,0.70375,0.651875,0.600625,0.548125,0.495625,0.441875,0.385625,0.32625,0.269375,0.22625,0.208125,0.22,0.248125,0.278125,0.30375,0.3225,0.329375,0.328125,0.328125,0.328125,0.328125,0.329375,0.33,0.33,0.33,0.330625,0,0.329375,0.32875,0.3275,0.328125,0.32875,0.32875,0.33,0.330625,0.330625,0.33,0.33,0.328125,0.3275,0.3275,0.328125,0.32875,0.33,0.330625,0.330625,0.33,0.329375,0.328125,0.3275,0.328125,0.32875,0.329375,0.330625,0.33125,0.33125,0.330625,0.333125,0.334375,0,0.33375,0.336875,0.34,0.344375,0.3475,0.348125,0.34875,0.35125,0.3525,0.351875,0.3525,0.355625,0.356875,0.3575,0.360625,0.364375,0.365,0.36625,0.37,0.374375,0.38,0.384375,0.38625,0.3925,0.4,0.40625,0.4125,0.4175,0.4225,0.4275,0.4325,0.43875,0,0.444375,0.451875,0.458125,0.4625,0.465625,0.4675,0.470625,0.471875,0.47125,0.475,0.478125,0.47875,0.47875,0.476875,0.474375,0.47375,0.47,0.46625,0.461875,0.459375,0.45625,0.454375,0.45125,0.44625,0.44125,0.43875,0.433125,0.4275,0.424375,0.42,0.414375,0.409375,0,0.40375,0.4,0.398125,0.39375,0.390625,0.384375,0.38,0.378125,0.375,0.3725,0.37,0.368125,0.365,0.3625,0.358125,0.356875,0.353125,0.350625,0.348125,0.34375,0.341875,0.339375,0.33625,0.335625,0.334375,0.33125,0.32875,0.328125,0.328125,0.32875,0.33,0.33,0,0.33,0.329375,0.32875,0.328125,0.3275,0.328125,0.328125,0.32875,0.329375,0.33,0.330625,0.330625,0.329375,0.328125,0.328125,0.328125,0.328125,0.32875,0.329375,0.33,0.330625,0.33,0.329375,0.32875,0.328125,0.328125,0.328125,0.328125,0.33,0.330625,0.330625,0.33,0,0.329375,0.32875,0.328125,0.328125,0.328125,0.32875,0.329375,0.33,0.330625,0.33125,0.33,0.32875,0.328125,0.328125,0.328125,0.32875,0.329375,0.33,0.330625,0.33,0.33,0.32875,0.3275,0.3275,0.328125,0.32875,0.329375,0.33,0.33,0.33,0.329375,0.32875,0,0.328125,0.3275,0.328125,0.32875,0.329375,0.330625,0.330625,0.330625,0.329375,0.32875,0.328125,0.328125,0.328125,0.32875,0.329375,0.33,0.33,0.33,0.329375,0.328125,0.3275,0.328125,0.328125,0.328125,0.329375,0.330625,0.330625,0.33,0.33,0.32875,0.328125,0.3275,0,0.328125,0.328125,0.32875,0.33,0.330625,0.330625,0.329375,0.329375,0.328125,0.3275,0.3275,0.328125,0.32875,0.33,0.330625,0.33,0.329375,0.329375,0.328125,0.3275,0.328125,0.32875,0.33,0.330625,0.330625,0.330625,0.329375,0.32875,0.328125,0.3275,0.328125,0.32875,0,0.329375,0.33,0.33,0.33,0.33,0.32875,0.328125,0.3275,0.3275,0.32875,0.32875,0.33,0.330625,0.33,0.33,0.3325,0.336875,0.339375,0.343125,0.350625,0.359375,0.365,0.369375,0.374375,0.375,0.375,0.375,0.378125,0.379375,0.379375,0.380625,0.381875,0,0.381875,0.3825,0.381875,0.380625,0.378125,0.37375,0.373125,0.37375,0.37375,0.370625,0.37,0.36875,0.365,0.361875,0.356875,0.35375,0.350625,0.348125,0.345625,0.344375,0.339375,0.335625,0.3325,0.32875,0.328125,0.3275,0.3275,0.328125,0.329375,0.33,0.330625,0.330625,0,0.33,0.329375,0.328125,0.328125,0.328125,0.32875,0.329375,0.330625,0.33125,0.330625,0.33,0.329375,0.328125,0.3275,0.3275,0.32875,0.329375,0.33,0.330625,0.330625,0.33,0.329375,0.32875,0.328125,0.3275,0.3275,0.32875,0.323125,0.311875,0.303125,0.291875,0.284375,0,0.288125,0.301875,0.3275,0.368125,0.41875,0.471875,0.525625,0.578125,0.63,0.681875,0.73375,0.784375,0.82625,0.856875,0.876875,0.889375,0.891875,0.8825,0.8625,0.8375,0.8075,0.768125,0.721875,0.67125,0.61875,0.5675,0.515,0.4625,0.4075,0.349375,0.29,0.239375,0,0.21125,0.211875,0.235625,0.265625,0.294375,0.31625,0.32875,0.33,0.32875,0.328125,0.328125,0.32875,0.32875,0.32875,0.330625,0.330625,0.33,0.329375,0.32875,0.328125,0.3275,0.328125,0.32875,0.33,0.330625,0.330625,0.33,0.32875,0.32875,0.328125,0.3275,0.32875,0,0.329375,0.33,0.330625,0.33,0.33,0.329375,0.32875,0.3275,0.328125,0.328125,0.328125,0.32875,0.330625,0.330625,0.331875,0.334375,0.334375,0.335,0.33875,0.341875,0.345625,0.346875,0.348125,0.350625,0.3525,0.351875,0.351875,0.35375,0.35625,0.356875,0.358125,0.3625,0,0.365,0.365625,0.368125,0.37375,0.37875,0.38375,0.385625,0.39,0.39625,0.403125,0.41,0.415625,0.42125,0.42625,0.431875,0.43625,0.441875,0.44875,0.455625,0.46125,0.464375,0.4675,0.469375,0.4725,0.471875,0.473125,0.47625,0.476875,0.478125,0.476875,0.474375,0.474375,0,0.4725,0.468125,0.464375,0.46,0.4575,0.454375,0.451875,0.4475,0.4425,0.439375,0.435625,0.429375,0.42625,0.421875,0.415625,0.41,0.405,0.4,0.39875,0.395,0.3925,0.388125,0.383125,0.379375,0.375625,0.373125,0.37,0.36875,0.365625,0.36375,0.36,0.358125,0,0.355625,0.351875,0.349375,0.344375,0.340625,0.33875,0.33625,0.33625,0.335625,0.33375,0.329375,0.328125,0.328125,0.328125,0.32875,0.32875,0.33,0.330625,0.33,0.329375,0.32875,0.328125,0.328125,0.328125,0.32875,0.329375,0.330625,0.330625,0.330625,0.329375,0.329375,0.32875,0,0.328125,0.328125,0.32875,0.329375,0.330625,0.330625,0.330625,0.33,0.329375,0.328125,0.328125,0.328125,0.32875,0.33,0.330625,0.33125,0.330625,0.330625,0.329375,0.328125,0.3275,0.3275,0.32875,0.329375,0.330625,0.330625,0.330625,0.33,0.32875,0.328125,0.328125,0.328125,0,0.32875,0.329375,0.330625,0.330625,0.330625,0.33,0.329375,0.32875,0.328125,0.328125,0.32875,0.33,0.330625,0.33,0.330625,0.33,0.32875,0.32875,0.32875,0.328125,0.32875,0.329375,0.33,0.33,0.33,0.33,0.329375,0.328125,0.3275,0.328125,0.32875,0.33,0,0.330625,0.330625,0.33,0.33,0.329375,0.328125,0.3275,0.328125,0.32875,0.329375,0.330625,0.330625,0.33,0.329375,0.329375,0.328125,0.3275,0.3275,0.328125,0.329375,0.33,0.33,0.33,0.33,0.329375,0.328125,0.3275,0.328125,0.328125,0.32875,0.329375,0.330625,0,0.330625,0.329375,0.32875,0.328125,0.3275,0.3275,0.3275,0.329375,0.33,0.330625,0.330625,0.33,0.329375,0.32875,0.328125,0.328125,0.32875,0.329375,0.33,0.33,0.330625,0.33,0.329375,0.32875,0.328125,0.328125,0.32875,0.33,0.33,0.330625,0.33125,0.3325,0,0.336875,0.34,0.341875,0.3475,0.35625,0.3625,0.366875,0.3725,0.375625,0.375625,0.375,0.378125,0.379375,0.379375,0.38,0.380625,0.38125,0.3825,0.3825,0.381875,0.380625,0.376875,0.373125,0.37375,0.373125,0.37125,0.370625,0.37,0.366875,0.364375,0.359375,0.35625,0,0.351875,0.349375,0.346875,0.345625,0.34125,0.336875,0.334375,0.33125,0.33,0.32875,0.328125,0.3275,0.328125,0.329375,0.33,0.330625,0.330625,0.330625,0.329375,0.32875,0.328125,0.3275,0.328125,0.329375,0.33,0.330625,0.33,0.33,0.329375,0.32875,0.328125,0.328125,0,0.328125,0.329375,0.330625,0.33125,0.330625,0.330625,0.329375,0.32875,0.328125,0.328125,0.328125,0.32625,0.315625,0.306875,0.29625,0.28625,0.286875,0.296875,0.316875,0.35125,0.398125,0.450625,0.504375,0.558125,0.61125,0.663125,0.715625,0.7675,0.8125,0.8475,0.87,0.884375,0,0.89125,0.886875,0.87125,0.848125,0.82,0.785,0.740625,0.690625,0.6375,0.585625,0.534375,0.4825,0.42875,0.3725,0.313125,0.256875,0.21875,0.206875,0.224375,0.25375,0.28375,0.309375,0.326875,0.33125,0.329375,0.329375,0.328125,0.328125,0.328125,0.32875,0.33,0.33,0,0.330625,0.330625,0.33,0.32875,0.328125,0.3275,0.3275,0.328125,0.329375,0.33,0.33,0.330625,0.33,0.329375,0.328125,0.3275,0.3275,0.328125,0.329375,0.33,0.33,0.33,0.329375,0.32875,0.3275,0.3275,0.328125,0.329375,0.33,0.33,0.33125,0.334375,0,0.335,0.335,0.3375,0.34,0.343125,0.345,0.34625,0.348125,0.351875,0.353125,0.3525,0.35375,0.35625,0.356875,0.3575,0.359375,0.36375,0.365,0.3675,0.3725,0.376875,0.381875,0.385,0.3875,0.393125,0.399375,0.406875,0.413125,0.419375,0.425,0.43,0.435,0,0.44,0.445625,0.451875,0.45875,0.4625,0.465625,0.46875,0.471875,0.473125,0.473125,0.47625,0.4775,0.4775,0.476875,0.474375,0.47375,0.473125,0.469375,0.466875,0.463125,0.459375,0.455,0.453125,0.44875,0.44375,0.440625,0.438125,0.433125,0.428125,0.424375,0.41875,0.411875,0,0.40625,0.40125,0.398125,0.39625,0.393125,0.390625,0.385,0.380625,0.3775,0.37375,0.37,0.368125,0.36625,0.364375,0.36125,0.359375,0.3575,0.35375,0.350625,0.34625,0.34125,0.34,0.3375,0.335625,0.33625,0.335,0.33125,0.32875,0.328125,0.328125,0.328125,0.32875,0,0.33,0.330625,0.330625,0.330625,0.33,0.32875,0.328125,0.328125,0.328125,0.32875,0.33,0.330625,0.330625,0.33,0.329375,0.32875,0.328125,0.3275,0.3275,0.328125,0.32875,0.33,0.330625,0.33125,0.33,0.32875,0.328125,0.3275,0.328125,0.328125,0.32875,0.33,0,0.330625,0.330625,0.329375,0.32875,0.328125,0.3275,0.328125,0.32875,0.329375,0.33,0.330625,0.330625,0.33,0.329375,0.328125,0.3275,0.3275,0.328125,0.329375,0.33,0.330625,0.330625,0.330625,0.329375,0.328125,0.3275,0.3275,0.328125,0.32875,0.33,0.330625,0.330625,0,0.33,0.329375,0.32875,0.3275,0.3275,0.328125,0.32875,0.33,0.330625,0.330625,0.330625,0.33,0.32875,0.328125,0.328125,0.32875,0.32875,0.33,0.33,0.330625,0.33,0.32875,0.328125,0.328125,0.328125,0.328125,0.329375,0.329375,0.33,0.330625,0.330625,0.329375,0,0.328125,0.3275,0.3275,0.328125,0.32875,0.33,0.33125,0.33,0.33,0.329375,0.32875,0.328125,0.3275,0.328125,0.32875,0.33,0.330625,0.33,0.33,0.329375,0.32875,0.3275,0.3275,0.3275,0.32875,0.329375,0.33,0.330625,0.33,0.329375,0.32875,0.3275,0,0.328125,0.32875,0.329375,0.330625,0.330625,0.330625,0.33,0.329375,0.328125,0.328125,0.328125,0.32875,0.329375,0.33,0.33,0.33,0.329375,0.329375,0.328125,0.3275,0.3275,0.328125,0.32875,0.329375,0.33,0.33,0.33,0.329375,0.32875,0.328125,0.3275,0.328125,0,0.32875,0.329375,0.33,0.33,0.33,0.329375,0.329375,0.32875,0.3275,0.328125,0.32875,0.33,0.330625,0.33,0.33,0.329375,0.328125,0.3275,0.328125,0.328125,0.32875,0.329375,0.33,0.330625,0.33,0.329375,0.32875,0.328125,0.3275,0.3275,0.32875,0.32875,0,0.330625,0.330625,0.329375,0.329375,0.32875,0.328125,0.3275,0.328125,0.32875,0.33,0.330625,0.330625,0.33,0.33,0.32875,0.328125,0.3275,0.328125,0.328125,0.329375,0.330625,0.330625,0.330625,0.329375,0.32875,0.328125,0.328125,0.32875,0.32875,0.33,0.330625,0.333125,0,0.338125,0.340625,0.3425,0.346875,0.355,0.36125,0.365,0.37125,0.375,0.37625,0.37625,0.378125,0.38,0.37875,0.37875,0.379375,0.38,0.380625,0.381875,0.3825,0.381875,0.376875,0.37375,0.37375,0.3725,0.369375,0.368125,0.36875,0.36625,0.36375,0.36,0.356875,0,0.3525,0.35,0.345625,0.34375,0.339375,0.335625,0.33375,0.33125,0.330625,0.330625,0.32875,0.328125,0.3275,0.328125,0.328125,0.329375,0.330625,0.330625,0.33125,0.330625,0.329375,0.328125,0.3275,0.328125,0.328125,0.329375,0.33,0.330625,0.330625,0.329375,0.329375,0.328125,0,0.3275,0.328125,0.32875,0.33,0.330625,0.330625,0.330625,0.33,0.329375,0.328125,0.328125,0.325,0.314375,0.30625,0.296875,0.286875,0.28625,0.2975,0.316875,0.35,0.395625,0.4475,0.500625,0.55375,0.6075,0.66125,0.71375,0.76625,0.811875,0.845625,0.86875,0.8825,0,0.889375,0.88625,0.87125,0.849375,0.8225,0.788125,0.743125,0.693125,0.64,0.5875,0.535625,0.483125,0.430625,0.375,0.316875,0.26,0.220625,0.2075,0.223125,0.251875,0.280625,0.30625,0.325,0.330625,0.330625,0.33,0.329375,0.32875,0.328125,0.328125,0.328125,0.32875,0,0.33,0.330625,0.330625,0.33,0.329375,0.328125,0.328125,0.3275,0.328125,0.32875,0.33,0.33,0.33,0.33,0.329375,0.328125,0.328125,0.328125,0.32875,0.329375,0.33,0.330625,0.33,0.33,0.329375,0.328125,0.328125,0.3275,0.32875,0.32875,0.330625,0.334375,0,0.33625,0.33625,0.339375,0.34,0.343125,0.344375,0.345,0.346875,0.35125,0.353125,0.354375,0.355,0.35875,0.358125,0.35625,0.358125,0.3625,0.36375,0.36625,0.371875,0.3775,0.383125,0.385625,0.3875,0.3925,0.398125,0.405,0.411875,0.418125,0.425,0.43125,0.436875,0,0.44125,0.446875,0.4525,0.4575,0.460625,0.464375,0.4675,0.47125,0.47375,0.474375,0.4775,0.4775,0.4775,0.4775,0.47375,0.473125,0.473125,0.470625,0.468125,0.464375,0.460625,0.45625,0.4525,0.448125,0.4425,0.439375,0.436875,0.433125,0.429375,0.42625,0.42,0.413125,0,0.40625,0.40125,0.398125,0.395625,0.393125,0.39125,0.38625,0.3825,0.379375,0.375,0.370625,0.3675,0.365,0.363125,0.36125,0.359375,0.35875,0.355625,0.3525,0.348125,0.3425,0.339375,0.335625,0.334375,0.335625,0.335625,0.3325,0.330625,0.329375,0.32875,0.328125,0.3275,0,0.3275,0.328125,0.32875,0.330625,0.330625,0.330625,0.33,0.32875,0.3275,0.3275,0.328125,0.329375,0.330625,0.330625,0.330625,0.330625,0.329375,0.32875,0.328125,0.328125,0.3275,0.32875,0.329375,0.33,0.330625,0.330625,0.33,0.329375,0.328125,0.328125,0.328125,0.32875,0,0.329375,0.33,0.330625,0.33,0.329375,0.32875,0.3275,0.328125,0.32875,0.32875,0.329375,0.33,0.330625,0.330625,0.33,0.32875,0.328125,0.3275,0.3275,0.32875,0.329375,0.33,0.330625,0.330625,0.329375,0.32875,0.328125,0.328125,0.328125,0.328125,0.32875,0.33,0,0.330625,0.33,0.329375,0.32875,0.328125,0.328125,0.328125,0.32875,0.329375,0.329375,0.33,0.33,0.33,0.32875,0.3275,0.3275,0.3275,0.32875,0.329375,0.329375,0.330625,0.330625,0.33,0.32875,0.328125,0.328125,0.3275,0.328125,0.32875,0.33,0.330625,0.33,0,0.33,0.329375,0.328125,0.3275,0.328125,0.328125,0.32875,0.333125,0.33875,0.341875,0.344375,0.349375,0.356875,0.361875,0.365625,0.37125,0.375,0.37625,0.3775,0.38,0.38125,0.38,0.37875,0.379375,0.379375,0.38,0.38125,0.381875,0.381875,0.3775,0.375,0.374375,0,0.3725,0.369375,0.368125,0.366875,0.364375,0.363125,0.36,0.356875,0.353125,0.35,0.345625,0.343125,0.338125,0.334375,0.3325,0.33,0.33,0.330625,0.33,0.329375,0.328125,0.328125,0.328125,0.328125,0.329375,0.33,0.330625,0.33,0.329375,0.329375,0.328125,0.3275,0,0.3275,0.32875,0.329375,0.33,0.330625,0.330625,0.33,0.329375,0.328125,0.328125,0.328125,0.32875,0.329375,0.33,0.33,0.330625,0.33,0.329375,0.328125,0.323125,0.311875,0.3025,0.2925,0.285625,0.288125,0.30125,0.32375,0.36,0.4075,0.459375,0.511875,0.565,0,0.618125,0.671875,0.725,0.7775,0.82125,0.8525,0.8725,0.885,0.889375,0.883125,0.865625,0.843125,0.815625,0.77875,0.73375,0.6825,0.629375,0.57625,0.52375,0.470625,0.418125,0.361875,0.304375,0.250625,0.216875,0.210625,0.23,0.258125,0.28625,0.31,0.325625,0.329375,0,0.33,0.33125,0.33,0.329375,0.329375,0.32875,0.3275,0.328125,0.329375,0.330625,0.330625,0.330625,0.33,0.33,0.329375,0.328125,0.328125,0.328125,0.329375,0.33,0.330625,0.33,0.329375,0.329375,0.32875,0.328125,0.328125,0.328125,0.32875,0.33,0.33,0.33,0,0.330625,0.33,0.328125,0.3275,0.3275,0.328125,0.33,0.334375,0.335625,0.3375,0.34125,0.343125,0.345,0.345,0.345,0.34625,0.350625,0.3525,0.353125,0.355625,0.35875,0.358125,0.3575,0.359375,0.3625,0.3625,0.365625,0.3725,0.37875,0.38375,0.386875,0.39,0,0.394375,0.4,0.40625,0.4125,0.41875,0.425,0.4325,0.438125,0.443125,0.44875,0.454375,0.45875,0.460625,0.46375,0.466875,0.47125,0.47375,0.475,0.47875,0.479375,0.478125,0.47625,0.4725,0.471875,0.47125,0.469375,0.466875,0.46375,0.460625,0.45625,0.4525,0.446875,0,0.44125,0.4375,0.435625,0.43125,0.428125,0.425625,0.42,0.413125,0.406875,0.4,0.396875,0.394375,0.39125,0.38875,0.385,0.3825,0.37875,0.374375,0.370625,0.368125,0.364375,0.36125,0.35875,0.358125,0.3575,0.355,0.3525,0.3475,0.341875,0.33875,0.334375,0.33375,0,0.334375,0.334375,0.33125,0.33,0.33,0.33,0.329375,0.32875,0.328125,0.328125,0.32875,0.33,0.33,0.330625,0.330625,0.33,0.32875,0.328125,0.3275,0.328125,0.328125,0.329375,0.330625,0.330625,0.330625,0.330625,0.33,0.328125,0.3275,0.3275,0.32875,0.329375,0,0.33,0.330625,0.330625,0.330625,0.329375,0.328125,0.328125,0.328125,0.32875,0.33,0.33,0.330625,0.330625,0.33,0.328125,0.328125,0.3275,0.328125,0.32875,0.329375,0.33,0.330625,0.33,0.329375,0.32875,0.328125,0.3275,0.3275,0.32875,0.329375,0.33,0.330625,0,0.330625,0.33,0.329375,0.328125,0.328125,0.328125,0.32875,0.33,0.330625,0.330625,0.330625,0.33,0.329375,0.328125,0.328125,0.328125,0.32875,0.329375,0.33,0.330625,0.330625,0.33,0.32875,0.328125,0.3275,0.328125,0.32875,0.33,0.330625,0.33125,0.330625,0.329375,0,0.32875,0.32875,0.328125,0.328125,0.32875,0.329375,0.33,0.330625,0.33,0.33,0.329375,0.32875,0.328125,0.3275,0.32875,0.330625,0.33625,0.341875,0.34375,0.34875,0.355625,0.36125,0.364375,0.369375,0.37375,0.374375,0.375625,0.379375,0.381875,0.38125,0.380625,0.380625,0,0.379375,0.379375,0.38,0.380625,0.38125,0.37875,0.37625,0.375,0.37375,0.370625,0.368125,0.3675,0.365,0.363125,0.359375,0.358125,0.355,0.3525,0.3475,0.345,0.33875,0.334375,0.3325,0.33,0.33,0.330625,0.330625,0.329375,0.329375,0.32875,0.3275,0.3275,0,0.3275,0.328125,0.329375,0.33,0.330625,0.33,0.33,0.32875,0.3275,0.3275,0.328125,0.32875,0.33,0.330625,0.33,0.33,0.32875,0.32875,0.32875,0.328125,0.328125,0.328125,0.329375,0.329375,0.33,0.33,0.329375,0.325625,0.314375,0.304375,0.295,0.285625,0,0.28625,0.2975,0.31625,0.34875,0.39375,0.444375,0.496875,0.55,0.6025,0.65625,0.70875,0.7625,0.81,0.845625,0.86875,0.8825,0.889375,0.885625,0.870625,0.849375,0.824375,0.79,0.746875,0.6975,0.645,0.591875,0.538125,0.485625,0.4325,0.376875,0.32,0.264375,0,0.224375,0.21,0.223125,0.250625,0.27875,0.30375,0.321875,0.32875,0.329375,0.330625,0.330625,0.330625,0.329375,0.328125,0.328125,0.3275,0.328125,0.329375,0.329375,0.33,0.330625,0.33,0.329375,0.32875,0.328125,0.3275,0.3275,0.32875,0.329375,0.330625,0.33125,0.33,0,0.33,0.32875,0.328125,0.3275,0.328125,0.32875,0.33,0.330625,0.330625,0.330625,0.329375,0.32875,0.328125,0.3275,0.32875,0.3325,0.335,0.336875,0.34,0.3425,0.345,0.345625,0.345,0.345,0.34875,0.35125,0.351875,0.354375,0.358125,0.359375,0.358125,0.359375,0,0.361875,0.3625,0.36375,0.369375,0.375625,0.3825,0.386875,0.39,0.394375,0.4,0.404375,0.41,0.41625,0.423125,0.429375,0.43625,0.441875,0.4475,0.45375,0.458125,0.460625,0.463125,0.465625,0.469375,0.473125,0.474375,0.478125,0.48,0.479375,0.4775,0.473125,0.47125,0,0.47125,0.46875,0.466875,0.46375,0.461875,0.458125,0.454375,0.449375,0.4425,0.438125,0.435625,0.431875,0.428125,0.42625,0.42125,0.415625,0.40875,0.4025,0.3975,0.395,0.39125,0.39,0.385625,0.3825,0.380625,0.37625,0.3725,0.369375,0.365,0.3625,0.359375,0.3575,0,0.3575,0.355625,0.353125,0.349375,0.343125,0.34,0.33625,0.33375,0.33375,0.33375,0.331875,0.33,0.33,0.33,0.329375,0.32875,0.32875,0.3275,0.3275,0.328125,0.329375,0.33,0.33,0.330625,0.33,0.32875,0.328125,0.328125,0.328125,0.328125,0.32875,0.33,0,0.330625,0.330625,0.330625,0.329375,0.328125,0.328125,0.32875,0.328125,0.32875,0.33,0.33,0.33,0.330625,0.33,0.32875,0.328125,0.3275,0.328125,0.329375,0.330625,0.330625,0.330625,0.33,0.32875,0.328125,0.3275,0.328125,0.328125,0.329375,0.33,0.330625,0.330625,0,0.330625,0.329375,0.32875,0.328125,0.3275,0.328125,0.329375,0.33,0.330625,0.330625,0.33,0.329375,0.328125,0.328125,0.328125,0.32875,0.32875,0.33,0.33,0.33,0.33,0.32875,0.328125,0.328125,0.328125,0.3275,0.328125,0.329375,0.330625,0.330625,0.329375,0.329375,0,0.32875,0.3275,0.3275,0.32875,0.329375,0.33,0.330625,0.330625,0.33,0.329375,0.328125,0.3275,0.328125,0.328125,0.32875,0.33,0.330625,0.330625,0.33,0.329375,0.32875,0.330625,0.335625,0.33875,0.343125,0.35,0.35875,0.364375,0.366875,0.371875,0.373125,0.373125,0,0.374375,0.3775,0.380625,0.381875,0.381875,0.381875,0.381875,0.381875,0.380625,0.38,0.37875,0.375625,0.374375,0.375625,0.375625,0.371875,0.37,0.36875,0.364375,0.36125,0.356875,0.355,0.3525,0.350625,0.348125,0.345625,0.340625,0.335625,0.3325,0.329375,0.328125,0.328125,0,0.32875,0.329375,0.330625,0.330625,0.33,0.329375,0.32875,0.3275,0.328125,0.328125,0.329375,0.329375,0.330625,0.33125,0.33125,0.33,0.32875,0.328125,0.3275,0.328125,0.32875,0.33,0.330625,0.330625,0.330625,0.33,0.32875,0.3275,0.3275,0.328125,0.329375,0.329375,0,0.330625,0.326875,0.315,0.304375,0.293125,0.28375,0.285,0.2975,0.320625,0.3575,0.405625,0.458125,0.510625,0.5625,0.61375,0.66625,0.71875,0.77125,0.8175,0.851875,0.874375,0.886875,0.89125,0.885,0.8675,0.8425,0.815,0.779375,0.735625,0.685625,0.634375,0.581875,0,0.529375,0.475625,0.42125,0.363125,0.305,0.250625,0.21625,0.209375,0.23,0.25875,0.286875,0.31,0.325625,0.328125,0.3275,0.32875,0.32875,0.329375,0.33,0.33,0.329375,0.32875,0.32875,0.328125,0.328125,0.328125,0.328125,0.329375,0.330625,0.330625,0.330625,0.33,0,0.32875,0.328125,0.328125,0.328125,0.32875,0.329375,0.33,0.330625,0.33,0.329375,0.329375,0.32875,0.328125,0.328125,0.32875,0.329375,0.330625,0.33,0.330625,0.329375,0.33,0.3325,0.333125,0.335,0.33875,0.341875,0.346875,0.3475,0.346875,0.348125,0.35125,0.35125,0,0.350625,0.353125,0.356875,0.358125,0.359375,0.361875,0.365,0.364375,0.366875,0.370625,0.375625,0.38125,0.384375,0.389375,0.395625,0.401875,0.408125,0.41375,0.41875,0.424375,0.429375,0.435,0.44125,0.448125,0.454375,0.460625,0.4625,0.465625,0.4675,0.470625,0.47125,0.4725,0,0.47625,0.47875,0.48,0.479375,0.475625,0.473125,0.47125,0.4675,0.465,0.46125,0.45875,0.45625,0.454375,0.449375,0.44375,0.44,0.436875,0.430625,0.425625,0.423125,0.418125,0.413125,0.408125,0.4025,0.399375,0.39625,0.3925,0.388125,0.3825,0.379375,0.376875,0.374375,0,0.371875,0.37,0.366875,0.36375,0.359375,0.356875,0.35625,0.353125,0.350625,0.3475,0.343125,0.34125,0.3375,0.335625,0.334375,0.333125,0.329375,0.3275,0.328125,0.32875,0.33,0.33,0.33,0.32875,0.328125,0.3275,0.3275,0.3275,0.328125,0.32875,0.329375,0.33,0,0.330625,0.33,0.329375,0.32875,0.328125,0.328125,0.328125,0.32875,0.33,0.33,0.33,0.33,0.329375,0.32875,0.3275,0.3275,0.3275,0.32875,0.33,0.330625,0.33,0.33,0.32875,0.32875,0.3275,0.326875,0.328125,0.32875,0.33,0.33125,0.33,0.33,0,0.32875,0.3275,0.328125,0.3275,0.32875,0.32875,0.33,0.33,0.33,0.329375,0.329375,0.328125,0.3275,0.3275,0.328125,0.32875,0.33,0.33,0.33,0.33,0.329375,0.328125,0.3275,0.3275,0.328125,0.32875,0.329375,0.33,0.33,0.33,0.329375,0.32875,0,0.328125,0.328125,0.328125,0.32875,0.33,0.330625,0.330625,0.330625,0.33,0.328125,0.3275,0.3275,0.328125,0.32875,0.329375,0.330625,0.330625,0.33,0.33,0.32875,0.3275,0.3275,0.3275,0.32875,0.33,0.330625,0.330625,0.33,0.329375,0.328125,0.3275,0.3275,0,0.328125,0.32875,0.33,0.330625,0.33,0.33,0.329375,0.328125,0.3275,0.328125,0.328125,0.32875,0.329375,0.330625,0.330625,0.33,0.329375,0.32875,0.3275,0.3275,0.3275,0.32875,0.33,0.330625,0.330625,0.33,0.329375,0.32875,0.3275,0.3275,0.328125,0.32875,0,0.329375,0.33,0.33,0.33,0.32875,0.328125,0.3275,0.328125,0.3275,0.32875,0.33,0.330625,0.33,0.330625,0.329375,0.32875,0.328125,0.3275,0.3275,0.32875,0.329375,0.33,0.330625,0.33,0.32875,0.328125,0.328125,0.3275,0.3275,0.328125,0.32875,0.33,0,0.330625,0.330625,0.329375,0.32875,0.328125,0.3275,0.3275,0.328125,0.329375,0.330625,0.330625,0.33,0.33,0.32875,0.328125,0.328125,0.328125,0.328125,0.329375,0.33,0.330625,0.330625,0.33,0.32875,0.328125,0.328125,0.328125,0.32875,0.329375,0.330625,0.33125,0.33,0,0.329375,0.32875,0.328125,0.328125,0.328125,0.32875,0.329375,0.330625,0.330625,0.330625,0.33,0.329375,0.3275,0.3275,0.328125,0.32875,0.329375,0.33,0.33,0.330625,0.3325,0.33625,0.33875,0.341875,0.3475,0.356875,0.363125,0.3675,0.3725,0.375625,0.375625,0.375,0,0.376875,0.37875,0.37875,0.379375,0.380625,0.381875,0.3825,0.381875,0.38125,0.379375,0.375,0.373125,0.37375,0.373125,0.370625,0.37,0.369375,0.36625,0.36375,0.35875,0.355625,0.35125,0.34875,0.345625,0.344375,0.340625,0.336875,0.334375,0.330625,0.329375,0.32875,0.328125,0,0.328125,0.32875,0.32875,0.330625,0.33125,0.330625,0.33,0.329375,0.32875,0.328125,0.328125,0.328125,0.329375,0.33,0.330625,0.33,0.329375,0.32875,0.328125,0.3275,0.328125,0.328125,0.329375,0.33,0.330625,0.33,0.33,0.33,0.32875,0.3275,0.3275,0.328125,0,0.325625,0.315625,0.305625,0.295,0.28625,0.286875,0.2975,0.318125,0.35375,0.401875,0.455,0.508125,0.56125,0.61375,0.665625,0.718125,0.769375,0.814375,0.84875,0.870625,0.885,0.89125,0.88625,0.869375,0.845625,0.818125,0.781875,0.736875,0.686875,0.634375,0.5825,0.53125,0,0.47875,0.425625,0.368125,0.309375,0.253125,0.216875,0.2075,0.22625,0.255625,0.285625,0.31,0.32625,0.33,0.329375,0.328125,0.3275,0.328125,0.328125,0.32875,0.33,0.33,0.33,0.33,0.32875,0.328125,0.3275,0.3275,0.32875,0.329375,0.33,0.330625,0.33,0,0.33,0.32875,0.328125,0.328125,0.3275,0.328125,0.32875,0.33,0.330625,0.33,0.329375,0.32875,0.328125,0.3275,0.328125,0.32875,0.329375,0.33,0.33,0.33125,0.33375,0.334375,0.335,0.338125,0.340625,0.343125,0.345625,0.346875,0.348125,0.351875,0.353125,0.3525,0,0.35375,0.355625,0.35625,0.356875,0.36,0.36375,0.365,0.366875,0.371875,0.3775,0.381875,0.384375,0.388125,0.39375,0.4,0.406875,0.413125,0.42,0.425625,0.430625,0.435625,0.440625,0.44625,0.453125,0.459375,0.4625,0.46625,0.469375,0.47125,0.4725,0.473125,0.475625,0,0.476875,0.4775,0.4775,0.47375,0.47375,0.473125,0.469375,0.466875,0.4625,0.45875,0.454375,0.4525,0.448125,0.443125,0.44,0.4375,0.431875,0.4275,0.424375,0.418125,0.41125,0.405625,0.400625,0.39875,0.3975,0.39375,0.390625,0.385,0.380625,0.37625,0.373125,0.370625,0,0.368125,0.36625,0.364375,0.36125,0.35875,0.3575,0.35375,0.350625,0.345625,0.34125,0.339375,0.336875,0.33625,0.33625,0.335,0.33125,0.32875,0.328125,0.3275,0.328125,0.328125,0.329375,0.330625,0.330625,0.330625,0.33,0.329375,0.328125,0.328125,0.328125,0.32875,0.32875,0,0.33,0.33,0.330625,0.33,0.329375,0.328125,0.3275,0.328125,0.32875,0.329375,0.33,0.330625,0.33,0.329375,0.32875,0.328125,0.3275,0.3275,0.32875,0.329375,0.33,0.330625,0.330625,0.33,0.32875,0.32875,0.328125,0.328125,0.32875,0.329375,0.33,0.33,0,0.33,0.329375,0.32875,0.328125,0.3275,0.328125,0.32875,0.329375,0.330625,0.330625,0.33,0.33,0.32875,0.328125,0.3275,0.328125,0.32875,0.33,0.33125,0.33125,0.330625,0.33,0.32875,0.328125,0.328125,0.329375,0.329375,0.329375,0.330625,0.330625,0.330625,0.33,0,0.329375,0.3275,0.3275,0.3275,0.32875,0.329375,0.33,0.33,0.330625,0.33,0.32875,0.328125,0.3275,0.328125,0.328125,0.329375,0.33,0.33,0.33,0.33,0.32875,0.328125,0.3275,0.3275,0.32875,0.329375,0.330625,0.330625,0.330625,0.33,0.329375,0.3275,0,0.3275,0.328125,0.328125,0.32875,0.33,0.330625,0.330625,0.33,0.32875,0.328125,0.328125,0.3275,0.328125,0.32875,0.33,0.330625,0.33125,0.329375,0.32875,0.328125,0.3275,0.3275,0.32875,0.329375,0.33,0.330625,0.330625,0.33,0.329375,0.328125,0.3275,0.3275,0,0.328125,0.32875,0.33,0.330625,0.33125,0.335625,0.34,0.340625,0.345,0.3525,0.360625,0.364375,0.370625,0.375,0.37625,0.375625,0.376875,0.37875,0.379375,0.379375,0.379375,0.38,0.38125,0.3825,0.3825,0.38125,0.378125,0.374375,0.37375,0.373125,0.370625,0.36875,0,0.369375,0.368125,0.365625,0.361875,0.3575,0.353125,0.350625,0.346875,0.345,0.34125,0.336875,0.335625,0.331875,0.329375,0.329375,0.32875,0.328125,0.3275,0.328125,0.329375,0.329375,0.33,0.33,0.33,0.329375,0.328125,0.3275,0.328125,0.328125,0.32875,0.329375,0.33,0,0.330625,0.33,0.329375,0.328125,0.328125,0.328125,0.32875,0.329375,0.33,0.330625,0.33,0.33,0.329375,0.32875,0.328125,0.328125,0.3275,0.31875,0.30875,0.3,0.28875,0.285,0.2925,0.30875,0.339375,0.383125,0.43375,0.4875,0.54125,0.594375,0.646875,0.69875,0,0.75125,0.799375,0.836875,0.863125,0.88,0.889375,0.88875,0.876875,0.855,0.829375,0.7975,0.755,0.70625,0.654375,0.60125,0.55,0.4975,0.445,0.39,0.331875,0.27375,0.22875,0.208125,0.216875,0.24375,0.27375,0.300625,0.321875,0.33,0.33,0.329375,0.32875,0,0.3275,0.326875,0.328125,0.329375,0.330625,0.33125,0.330625,0.330625,0.33,0.329375,0.328125,0.328125,0.328125,0.32875,0.33,0.330625,0.330625,0.33,0.329375,0.32875,0.328125,0.3275,0.328125,0.32875,0.33,0.33,0.330625,0.33,0.329375,0.329375,0.328125,0.328125,0,0.328125,0.32875,0.33,0.33125,0.33375,0.335,0.335625,0.3375,0.339375,0.3425,0.345,0.34625,0.3475,0.35125,0.353125,0.35375,0.35375,0.35625,0.356875,0.356875,0.358125,0.361875,0.36375,0.36625,0.37,0.375625,0.38125,0.384375,0.38625,0.391875,0.3975,0.40375,0,0.410625,0.418125,0.424375,0.43,0.435,0.44,0.444375,0.45,0.45625,0.460625,0.46375,0.4675,0.470625,0.47375,0.47375,0.475625,0.476875,0.4775,0.4775,0.475,0.473125,0.47375,0.470625,0.4675,0.464375,0.460625,0.45625,0.453125,0.449375,0.444375,0.44,0.438125,0,0.434375,0.429375,0.42625,0.420625,0.414375,0.408125,0.4025,0.39875,0.39625,0.394375,0.391875,0.38625,0.3825,0.38,0.375,0.371875,0.36875,0.366875,0.36375,0.3625,0.36,0.35875,0.355625,0.3525,0.34875,0.3425,0.33875,0.336875,0.334375,0.335,0.335625,0.33375,0,0.330625,0.32875,0.3275,0.3275,0.328125,0.32875,0.329375,0.33,0.330625,0.330625,0.33,0.329375,0.328125,0.3275,0.328125,0.32875,0.329375,0.33,0.330625,0.330625,0.33,0.329375,0.328125,0.328125,0.328125,0.32875,0.329375,0.33,0.330625,0.33,0.329375,0.329375,0,0.328125,0.328125,0.3275,0.3275,0.329375,0.33,0.33,0.33,0.33,0.329375,0.32875,0.32875,0.328125,0.328125,0.329375,0.330625,0.330625,0.330625,0.33,0.33,0.32875,0.328125,0.328125,0.32875,0.33,0.330625,0.330625,0.33,0.33,0.329375,0.328125,0.328125,0,0.328125,0.329375,0.329375,0.33,0.330625,0.330625,0.33,0.329375,0.328125,0.328125,0.328125,0.32875,0.32875,0.33,0.330625,0.330625,0.33,0.329375,0.32875,0.328125,0.3275,0.32875,0.32875,0.33,0.33125,0.33125,0.330625,0.329375,0.32875,0.328125,0.328125,0.32875,0,0.329375,0.330625,0.330625,0.33,0.33,0.329375,0.32875,0.328125,0.3275,0.328125,0.32875,0.329375,0.33,0.330625,0.33,0.329375,0.32875,0.328125,0.3275,0.328125,0.329375,0.329375,0.33,0.33,0.33,0.32875,0.328125,0.328125,0.328125,0.32875,0.32875,0.33,0,0.330625,0.330625,0.330625,0.329375,0.32875,0.328125,0.328125,0.328125,0.32875,0.329375,0.330625,0.330625,0.33,0.33,0.329375,0.328125,0.3275,0.328125,0.32875,0.33,0.330625,0.334375,0.34,0.34125,0.34375,0.349375,0.3575,0.363125,0.368125,0.37375,0.37625,0.37625,0,0.376875,0.379375,0.38,0.38,0.379375,0.38,0.380625,0.38125,0.381875,0.3825,0.38,0.375625,0.37375,0.37375,0.371875,0.369375,0.36875,0.368125,0.365,0.363125,0.359375,0.355625,0.351875,0.348125,0.344375,0.343125,0.338125,0.335,0.333125,0.33125,0.330625,0.329375,0,0.32875,0.328125,0.328125,0.328125,0.329375,0.33,0.330625,0.330625,0.330625,0.329375,0.32875,0.328125,0.328125,0.32875,0.328125,0.33,0.330625,0.330625,0.33,0.329375,0.32875,0.3275,0.3275,0.328125,0.328125,0.33,0.330625,0.33,0.33,0.329375,0.32875,0.328125,0,0.3275,0.321875,0.310625,0.303125,0.2925,0.28625,0.29,0.3025,0.326875,0.365625,0.414375,0.466875,0.520625,0.57375,0.6275,0.679375,0.731875,0.783125,0.825625,0.855,0.874375,0.88625,0.89,0.881875,0.863125,0.84,0.811875,0.7725,0.725,0.673125,0.620625,0.56875,0,0.516875,0.46375,0.41125,0.35375,0.295625,0.24375,0.213125,0.21,0.233125,0.2625,0.29,0.31375,0.328125,0.330625,0.330625,0.329375,0.328125,0.3275,0.3275,0.3275,0.328125,0.32875,0.33,0.330625,0.33,0.33,0.33,0.328125,0.328125,0.328125,0.328125,0.329375,0,0.33,0.33,0.330625,0.33,0.32875,0.328125,0.3275,0.328125,0.32875,0.329375,0.330625,0.33,0.330625,0.33,0.329375,0.3275,0.3275,0.3275,0.32875,0.329375,0.331875,0.335,0.335625,0.336875,0.34,0.341875,0.34375,0.345,0.345625,0.34875,0.3525,0.35375,0,0.35375,0.35625,0.3575,0.356875,0.356875,0.359375,0.3625,0.364375,0.36875,0.375,0.38,0.384375,0.38625,0.389375,0.394375,0.400625,0.406875,0.414375,0.42125,0.426875,0.433125,0.43875,0.443125,0.448125,0.45375,0.458125,0.460625,0.465625,0.46875,0.473125,0.47375,0.475,0,0.4775,0.476875,0.476875,0.475,0.4725,0.471875,0.471875,0.468125,0.465625,0.461875,0.45875,0.455,0.45125,0.44625,0.44125,0.438125,0.43625,0.430625,0.4275,0.42375,0.4175,0.410625,0.404375,0.399375,0.39625,0.394375,0.3925,0.389375,0.384375,0.38125,0.3775,0.37375,0,0.369375,0.366875,0.364375,0.3625,0.360625,0.359375,0.358125,0.354375,0.35125,0.345,0.340625,0.338125,0.335,0.335,0.335625,0.334375,0.33125,0.330625,0.33,0.329375,0.3275,0.328125,0.328125,0.32875,0.33,0.330625,0.330625,0.33,0.329375,0.328125,0.3275,0.326875,0,0.328125,0.329375,0.33,0.330625,0.33,0.329375,0.329375,0.328125,0.328125,0.3275,0.328125,0.32875,0.329375,0.330625,0.330625,0.330625,0.329375,0.328125,0.3275,0.3275,0.32875,0.329375,0.33,0.330625,0.330625,0.33,0.329375,0.32875,0.3275,0.3275,0.328125,0.32875,0,0.33,0.330625,0.330625,0.330625,0.329375,0.328125,0.328125,0.328125,0.32875,0.329375,0.33,0.330625,0.33125,0.330625,0.329375,0.32875,0.3275,0.3275,0.328125,0.32875,0.329375,0.330625,0.330625,0.330625,0.329375,0.32875,0.328125,0.3275,0.32875,0.329375,0.33,0.33,0,0.330625,0.330625,0.329375,0.329375,0.328125,0.3275,0.32875,0.32875,0.329375,0.330625,0.33,0.33,0.329375,0.32875,0.3275,0.328125,0.328125,0.32875,0.329375,0.33,0.33,0.33,0.329375,0.32875,0.32875,0.3275,0.328125,0.329375,0.33,0.330625,0.33,0.33,0,0.33,0.329375,0.328125,0.3275,0.3275,0.32875,0.33,0.330625,0.330625,0.330625,0.33,0.32875,0.328125,0.328125,0.328125,0.32875,0.33,0.33125,0.33125,0.330625,0.33,0.32875,0.328125,0.3275,0.328125,0.32875,0.329375,0.33,0.33,0.33,0.329375,0.32875,0,0.328125,0.3275,0.3275,0.328125,0.329375,0.331875,0.3375,0.34125,0.343125,0.348125,0.355,0.36125,0.364375,0.370625,0.374375,0.37625,0.376875,0.37875,0.380625,0.380625,0.379375,0.37875,0.379375,0.380625,0.381875,0.381875,0.381875,0.378125,0.375625,0.375,0.37375,0.37,0,0.368125,0.368125,0.365625,0.364375,0.36125,0.358125,0.35375,0.35125,0.34625,0.34375,0.339375,0.335,0.33375,0.33125,0.330625,0.330625,0.33,0.329375,0.328125,0.326875,0.3275,0.32875,0.329375,0.330625,0.330625,0.330625,0.329375,0.32875,0.32875,0.3275,0.3275,0.328125,0,0.329375,0.330625,0.330625,0.330625,0.329375,0.32875,0.3275,0.3275,0.328125,0.32875,0.33,0.330625,0.330625,0.330625,0.33,0.329375,0.328125,0.325,0.314375,0.305,0.295625,0.28625,0.286875,0.2975,0.3175,0.35,0.395625,0.446875,0.5,0.553125,0.60625,0.66,0,0.7125,0.765625,0.8125,0.84625,0.86875,0.8825,0.889375,0.885625,0.870625,0.849375,0.823125,0.788125,0.744375,0.694375,0.640625,0.588125,0.535,0.483125,0.43,0.375,0.3175,0.26125,0.22125,0.20875,0.22375,0.251875,0.280625,0.305625,0.324375,0.33,0.330625,0.330625,0,0.33,0.329375,0.32875,0.3275,0.3275,0.328125,0.329375,0.33,0.330625,0.330625,0.33,0.329375,0.328125,0.328125,0.328125,0.32875,0.329375,0.33,0.330625,0.330625,0.330625,0.329375,0.328125,0.328125,0.328125,0.32875,0.329375,0.330625,0.330625,0.330625,0.33,0.329375,0,0.328125,0.3275,0.328125,0.328125,0.329375,0.33375,0.33625,0.336875,0.34,0.341875,0.344375,0.345,0.345,0.346875,0.35125,0.35375,0.35375,0.355,0.358125,0.358125,0.3575,0.359375,0.361875,0.3625,0.365625,0.371875,0.378125,0.38375,0.386875,0.389375,0.39375,0.39875,0