0.6825,0.735625,0.78625,0.8275,0.858125,0.87625,0.8875,0.89,0.88125,0.86125,0.8375,0.808125,0.769375,0.7225,0.67125,0.618125,0.565625,0.51375,0.46125,0.406875,0.34875,0.290625,0.24,0.211875,0.2125,0.23625,0.265625,0.293125,0.315625,0.328125,0.329375,0.329375,0,0.329375,0.329375,0.32875,0.32875,0.32875,0.32875,0.32875,0.329375,0.33,0.33,0.329375,0.329375,0.329375,0.32875,0.329375,0.329375,0.329375,0.33,0.33,0.329375,0.329375,0.329375,0.329375,0.32875,0.328125,0.329375,0.329375,0.33,0.33,0.33,0.329375,0.32875,0,0.32875,0.329375,0.329375,0.32875,0.32875,0.33,0.333125,0.334375,0.335,0.338125,0.34,0.34375,0.345625,0.34625,0.3475,0.350625,0.351875,0.3525,0.354375,0.3575,0.3575,0.3575,0.359375,0.3625,0.36375,0.365625,0.370625,0.37625,0.381875,0.385625,0.388125,0.393125,0,0.4,0.405625,0.411875,0.4175,0.42375,0.43,0.435625,0.44125,0.446875,0.4525,0.458125,0.46125,0.464375,0.466875,0.47,0.4725,0.473125,0.47625,0.47875,0.478125,0.4775,0.474375,0.473125,0.4725,0.469375,0.466875,0.4625,0.46,0.45625,0.45375,0.449375,0.44375,0,0.439375,0.4375,0.4325,0.428125,0.425,0.420625,0.41375,0.4075,0.4025,0.398125,0.39625,0.3925,0.390625,0.385,0.38125,0.378125,0.374375,0.371875,0.369375,0.365625,0.36375,0.360625,0.358125,0.3575,0.354375,0.351875,0.348125,0.3425,0.34,0.336875,0.335625,0.335625,0,0.335,0.33125,0.329375,0.32875,0.32875,0.329375,0.32875,0.329375,0.329375,0.329375,0.329375,0.33,0.33,0.32875,0.32875,0.32875,0.32875,0.329375,0.329375,0.329375,0.329375,0.329375,0.32875,0.329375,0.32875,0.32875,0.328125,0.32875,0.329375,0.329375,0.329375,0.329375,0,0.32875,0.32875,0.32875,0.32875,0.32875,0.329375,0.329375,0.33,0.329375,0.32875,0.33,0.329375,0.329375,0.329375,0.32875,0.32875,0.329375,0.33,0.329375,0.33,0.329375,0.32875,0.32875,0.32875,0.329375,0.329375,0.33,0.329375,0.33,0.33,0.329375,0.329375,0,0.32875,0.328125,0.328125,0.32875,0.33,0.329375,0.33,0.33,0.329375,0.32875,0.32875,0.32875,0.329375,0.329375,0.329375,0.329375,0.33,0.33,0.329375,0.32875,0.329375,0.329375,0.32875,0.328125,0.329375,0.33,0.33,0.329375,0.329375,0.329375,0.329375,0.32875,0,0.32875,0.329375,0.329375,0.329375,0.329375,0.329375,0.329375,0.329375,0.32875,0.32875,0.32875,0.32875,0.329375,0.329375,0.329375,0.329375,0.329375,0.329375,0.329375,0.32875,0.32875,0.32875,0.32875,0.32875,0.329375,0.329375,0.33,0.33,0.329375,0.32875,0.32875,0.32875,0,0.374375,0.375,0.375625,0.376875,0.379375,0.38,0.38,0.380625,0.38125,0.380625,0.38125,0.38125,0.380625,0.3775,0.374375,0.373125,0.373125,0.37125,0.369375,0.36875,0.365625,0.36375,0.36,0.3575,0.353125,0.350625,0.346875,0.345,0.34125,0.33625,0.33375,0.330625,0,0.329375,0.32875,0.32875,0.32875,0.32875,0.32875,0.329375,0.329375,0.329375,0.329375,0.329375,0.32875,0.32875,0.329375,0.32875,0.32875,0.328125,0.32875,0.329375,0.33,0.329375,0.32875,0.32875,0.32875,0.329375,0.32875,0.32875,0.329375,0.329375,0.329375,0.329375,0.329375,0,0.64625,0.593125,0.540625,0.48875,0.435625,0.38,0.32125,0.264375,0.22375,0.208125,0.221875,0.25,0.279375,0.304375,0.32375,0.329375,0.329375,0.329375,0.329375,0.32875,0.32875,0.32875,0.329375,0.329375,0.33,0.33,0.329375,0.329375,0.32875,0.328125,0.328125,0.32875,0,0.32875,0.32875,0.329375,0.33,0.329375,0.329375,0.329375,0.329375,0.32875,0.32875,0.329375,0.329375,0.329375,0.329375,0.32875,0.32875,0.329375,0.32875,0.32875,0.32875,0.32875,0.329375,0.329375,0.33125,0.334375,0.334375,0.33625,0.339375,0.34125,0.345,0.345625,0.34625,0,0.34875,0.351875,0.351875,0.351875,0.355625,0.3575,0.3575,0.358125,0.36125,0.36375,0.364375,0.368125,0.373125,0.378125,0.383125,0.38625,0.390625,0.39625,0.403125,0.40875,0.415,0.42125,0.426875,0.431875,0.4375,0.44375,0.449375,0.455625,0.460625,0.463125,0.46625,0.46875,0,0.471875,0.473125,0.474375,0.478125,0.47875,0.478125,0.476875,0.47375,0.473125,0.47125,0.468125,0.465,0.46125,0.458125,0.455,0.4525,0.446875,0.44125,0.439375,0.435625,0.429375,0.426875,0.423125,0.4175,0.41125,0.405,0.4,0.3975,0.395,0.3925,0.3875,0.3825,0,0.38,0.376875,0.37375,0.37,0.3675,0.364375,0.3625,0.359375,0.35875,0.35625,0.353125,0.350625,0.345625,0.34125,0.339375,0.335625,0.335,0.335,0.33375,0.33,0.32875,0.32875,0.32875,0.32875,0.329375,0.329375,0.32875,0.329375,0.329375,0.329375,0.329375,0.329375,0,0.329375,0.32875,0.32875,0.32875,0.329375,0.33,0.329375,0.32875,0.329375,0.329375,0.32875,0.329375,0.329375,0.329375,0.329375,0.33,0.33,0.329375,0.32875,0.32875,0.32875,0.329375,0.329375,0.329375,0.329375,0.329375,0.329375,0.32875,0.329375,0.32875,0.32875,0.32875,0,0.329375,0.329375,0.329375,0.329375,0.329375,0.329375,0.329375,0.32875,0.32875,0.329375,0.32875,0.32875,0.329375,0.329375,0.329375,0.329375,0.32875,0.329375,0.32875,0.32875,0.32875,0.329375,0.329375,0.329375,0.329375,0.329375,0.329375,0.329375,0.32875,0.32875,0.329375,0.33,0,0.33,0.329375,0.33,0.329375,0.329375,0.329375,0.329375,0.329375,0.33,0.329375,0.329375,0.329375,0.33,0.32875,0.329375,0.329375,0.32875,0.32875,0.32875,0.329375,0.329375,0.329375,0.329375,0.329375,0.329375,0.32875,0.32875,0.329375,0.329375,0.33,0.329375,0.329375,0,0.329375,0.329375,0.32875,0.329375,0.329375,0.329375,0.329375,0.329375,0.329375,0.329375,0.329375,0.329375,0.329375,0.32875,0.32875,0.329375,0.329375,0.329375,0.329375,0.329375,0.329375,0.329375,0.32875,0.32875,0.329375,0.329375,0.32875,0.32875,0.329375,0.33,0.33,0.33,0,0.374375,0.374375,0.37375,0.370625,0.369375,0.368125,0.365,0.361875,0.358125,0.355625,0.351875,0.349375,0.34625,0.34375,0.33875,0.335,0.333125,0.33,0.329375,0.329375,0.329375,0.32875,0.329375,0.329375,0.329375,0.32875,0.32875,0.329375,0.329375,0.32875,0.32875,0.32875,0,0.520625,0.57375,0.62625,0.67875,0.731875,0.783125,0.825,0.85625,0.875625,0.8875,0.89,0.881875,0.863125,0.83875,0.809375,0.77125,0.724375,0.673125,0.621875,0.569375,0.516875,0.46375,0.41,0.3525,0.29375,0.241875,0.2125,0.211875,0.234375,0.26375,0.291875,0.315,0,0.3275,0.329375,0.32875,0.32875,0.32875,0.32875,0.32875,0.329375,0.329375,0.329375,0.329375,0.329375,0.329375,0.329375,0.329375,0.32875,0.329375,0.329375,0.329375,0.33,0.329375,0.329375,0.329375,0.329375,0.329375,0.329375,0.329375,0.32875,0.32875,0.329375,0.33,0.329375,0,0.329375,0.32875,0.32875,0.32875,0.329375,0.329375,0.33,0.329375,0.33,0.333125,0.334375,0.335,0.338125,0.34125,0.345,0.34625,0.346875,0.3475,0.350625,0.3525,0.351875,0.353125,0.356875,0.358125,0.358125,0.359375,0.3625,0.36375,0.365625,0.37,0.375625,0.38125,0,0.385,0.388125,0.39375,0.399375,0.405625,0.41125,0.4175,0.42375,0.42875,0.435,0.440625,0.44625,0.4525,0.458125,0.461875,0.465,0.4675,0.470625,0.473125,0.47375,0.47625,0.47875,0.479375,0.47875,0.475,0.47375,0.4725,0.469375,0.466875,0.463125,0.460625,0.456875,0,0.455,0.450625,0.444375,0.440625,0.438125,0.433125,0.428125,0.425625,0.420625,0.415,0.40875,0.403125,0.399375,0.396875,0.39375,0.390625,0.385,0.38125,0.37875,0.375,0.371875,0.37,0.366875,0.36375,0.36125,0.358125,0.3575,0.354375,0.351875,0.348125,0.343125,0.340625,0,0.3375,0.335,0.335,0.334375,0.33125,0.329375,0.329375,0.329375,0.329375,0.32875,0.329375,0.33,0.33,0.329375,0.329375,0.329375,0.329375,0.329375,0.329375,0.329375,0.329375,0.329375,0.329375,0.329375,0.329375,0.32875,0.32875,0.32875,0.32875,0.329375,0.329375,0.33,0,0.33,0.32875,0.329375,0.32875,0.329375,0.329375,0.329375,0.329375,0.329375,0.329375,0.329375,0.329375,0.329375,0.329375,0.32875,0.32875,0.32875,0.32875,0.329375,0.329375,0.329375,0.32875,0.32875,0.329375,0.32875,0.328125,0.32875,0.32875,0.32875,0.32875,0.32875,0.329375,0,0.33,0.329375,0.32875,0.32875,0.329375,0.329375,0.329375,0.329375,0.33,0.329375,0.329375,0.329375,0.32875,0.32875,0.32875,0.329375,0.33,0.33,0.329375,0.32875,0.32875,0.32875,0.32875,0.329375,0.329375,0.329375,0.329375,0.329375,0.329375,0.329375,0.32875,0.329375,0,0.32875,0.32875,0.329375,0.32875,0.329375,0.33,0.329375,0.328125,0.32875,0.32875,0.32875,0.329375,0.32875,0.329375,0.33,0.329375,0.329375,0.329375,0.329375,0.329375,0.329375,0.329375,0.32875,0.329375,0.329375,0.329375,0.329375,0.329375,0.329375,0.329375,0.32875,0.32875,0,0.3625,0.365,0.370625,0.374375,0.375,0.375,0.376875,0.38,0.38,0.380625,0.380625,0.38125,0.38125,0.380625,0.38125,0.380625,0.3775,0.374375,0.374375,0.37375,0.3725,0.37,0.369375,0.366875,0.363125,0.359375,0.35625,0.353125,0.350625,0.3475,0.345625,0.34125,0,0.33625,0.334375,0.330625,0.329375,0.329375,0.329375,0.32875,0.329375,0.329375,0.329375,0.329375,0.329375,0.329375,0.32875,0.32875,0.328125,0.328125,0.32875,0.329375,0.33,0.33,0.33,0.329375,0.329375,0.32875,0.32875,0.32875,0.32875,0.329375,0.32875,0.329375,0.329375,0,0.791875,0.749375,0.701875,0.65,0.596875,0.544375,0.491875,0.43875,0.3825,0.324375,0.266875,0.225,0.208125,0.220625,0.24875,0.278125,0.303125,0.3225,0.329375,0.329375,0.32875,0.328125,0.32875,0.329375,0.329375,0.329375,0.329375,0.329375,0.329375,0.329375,0.329375,0.32875,0,0.329375,0.329375,0.33,0.33,0.329375,0.329375,0.329375,0.32875,0.328125,0.32875,0.329375,0.329375,0.329375,0.33,0.33,0.33,0.33,0.329375,0.329375,0.329375,0.329375,0.329375,0.33,0.329375,0.329375,0.33,0.330625,0.33375,0.334375,0.33625,0.34,0.341875,0,0.345,0.34625,0.346875,0.34875,0.351875,0.3525,0.351875,0.355,0.3575,0.358125,0.35875,0.361875,0.364375,0.364375,0.366875,0.3725,0.378125,0.383125,0.38625,0.39,0.396875,0.4025,0.40875,0.415,0.420625,0.425625,0.431875,0.436875,0.443125,0.449375,0.455625,0.460625,0,0.463125,0.46625,0.468125,0.471875,0.4725,0.474375,0.4775,0.47875,0.479375,0.4775,0.474375,0.473125,0.47125,0.468125,0.465625,0.461875,0.45875,0.455625,0.45375,0.448125,0.4425,0.439375,0.435625,0.43,0.426875,0.42375,0.4175,0.411875,0.40625,0.40125,0.398125,0.395,0,0.391875,0.3875,0.383125,0.380625,0.3775,0.374375,0.370625,0.36875,0.365,0.3625,0.359375,0.358125,0.356875,0.3525,0.350625,0.34625,0.341875,0.339375,0.33625,0.335,0.335,0.33375,0.329375,0.328125,0.32875,0.329375,0.329375,0.329375,0.33,0.33,0.329375,0.32875,0,0.32875,0.32875,0.329375,0.329375,0.32875,0.32875,0.329375,0.329375,0.32875,0.329375,0.32875,0.32875,0.32875,0.32875,0.329375,0.33,0.33,0.33,0.329375,0.329375,0.329375,0.32875,0.32875,0.32875,0.329375,0.33,0.33,0.329375,0.329375,0.329375,0.329375,0.329375,0,0.32875,0.329375,0.329375,0.329375,0.33,0.33,0.329375,0.329375,0.32875,0.329375,0.329375,0.329375,0.329375,0.33,0.33,0.329375,0.329375,0.329375,0.329375,0.32875,0.329375,0.32875,0.329375,0.33,0.329375,0.33,0.33,0.33,0.33,0.32875,0.32875,0.329375,0,0.33,0.33,0.329375,0.33,0.329375,0.32875,0.32875,0.329375,0.329375,0.32875,0.32875,0.329375,0.329375,0.329375,0.329375,0.329375,0.33,0.329375,0.329375,0.329375,0.33,0.329375,0.329375,0.33,0.329375,0.329375,0.329375,0.32875,0.32875,0.32875,0.329375,0.33,0,0.33,0.329375,0.329375,0.329375,0.32875,0.32875,0.32875,0.32875,0.329375,0.33,0.330625,0.33,0.329375,0.32875,0.329375,0.329375,0.32875,0.329375,0.329375,0.329375,0.329375,0.33,0.329375,0.329375,0.329375,0.32875,0.32875,0.32875,0.329375,0.329375,0.33,0.33,0,0.380625,0.379375,0.375625,0.374375,0.374375,0.37375,0.370625,0.369375,0.368125,0.364375,0.361875,0.358125,0.355,0.351875,0.35,0.346875,0.34375,0.338125,0.335,0.333125,0.329375,0.32875,0.32875,0.329375,0.329375,0.329375,0.329375,0.33,0.33,0.329375,0.32875,0.329375,0,0.365,0.41375,0.46625,0.518125,0.57125,0.623125,0.675625,0.728125,0.78,0.82375,0.855625,0.875625,0.888125,0.89125,0.883125,0.86375,0.84,0.81125,0.7725,0.7275,0.6775,0.625625,0.5725,0.52,0.466875,0.4125,0.355625,0.296875,0.244375,0.21375,0.210625,0.23375,0,0.263125,0.290625,0.314375,0.3275,0.329375,0.329375,0.32875,0.32875,0.32875,0.329375,0.329375,0.33,0.33,0.329375,0.329375,0.32875,0.32875,0.32875,0.329375,0.32875,0.329375,0.329375,0.32875,0.32875,0.329375,0.32875,0.32875,0.32875,0.32875,0.329375,0.33,0.329375,0,0.329375,0.329375,0.329375,0.329375,0.329375,0.329375,0.32875,0.329375,0.33,0.329375,0.329375,0.329375,0.3325,0.335,0.335625,0.33875,0.34125,0.344375,0.346875,0.34625,0.3475,0.350625,0.351875,0.351875,0.353125,0.356875,0.358125,0.358125,0.36,0.3625,0.364375,0.365625,0,0.37,0.375,0.380625,0.385,0.388125,0.39375,0.399375,0.405625,0.41125,0.416875,0.423125,0.42875,0.435,0.440625,0.446875,0.4525,0.4575,0.46125,0.464375,0.4675,0.47,0.4725,0.4725,0.475625,0.47875,0.479375,0.47875,0.475625,0.473125,0.4725,0.469375,0.466875,0,0.46375,0.460625,0.4575,0.455,0.45,0.445,0.44,0.438125,0.433125,0.428125,0.425,0.420625,0.414375,0.408125,0.403125,0.399375,0.396875,0.393125,0.39,0.385,0.38125,0.379375,0.375625,0.3725,0.37,0.3675,0.364375,0.36125,0.35875,0.3575,0.355,0.351875,0,0.349375,0.344375,0.34125,0.33875,0.335625,0.335,0.335,0.331875,0.329375,0.32875,0.329375,0.329375,0.329375,0.329375,0.329375,0.33,0.329375,0.329375,0.32875,0.329375,0.329375,0.329375,0.329375,0.329375,0.329375,0.329375,0.329375,0.32875,0.32875,0.32875,0.329375,0.33,0,0.33,0.33,0.33,0.329375,0.329375,0.329375,0.329375,0.329375,0.329375,0.329375,0.329375,0.33,0.33,0.33,0.329375,0.329375,0.32875,0.329375,0.329375,0.329375,0.329375,0.329375,0.33,0.33,0.329375,0.329375,0.329375,0.32875,0.329375,0.329375,0.33,0.329375,0,0.329375,0.329375,0.329375,0.329375,0.32875,0.32875,0.329375,0.33,0.330625,0.33,0.33,0.33,0.33,0.329375,0.329375,0.329375,0.329375,0.329375,0.329375,0.33,0.329375,0.33,0.329375,0.329375,0.32875,0.32875,0.329375,0.329375,0.329375,0.329375,0.33,0.33,0,0.329375,0.329375,0.32875,0.32875,0.32875,0.329375,0.329375,0.329375,0.329375,0.329375,0.32875,0.329375,0.329375,0.33,0.33,0.329375,0.329375,0.32875,0.329375,0.329375,0.329375,0.329375,0.329375,0.32875,0.32875,0.33,0.33,0.329375,0.329375,0.32875,0.32875,0.32875,0,0.34125,0.34625,0.35375,0.361875,0.365,0.37,0.374375,0.374375,0.375,0.376875,0.38,0.38,0.380625,0.380625,0.38125,0.380625,0.380625,0.380625,0.38,0.3775,0.374375,0.374375,0.374375,0.371875,0.37,0.369375,0.36625,0.363125,0.359375,0.356875,0.354375,0.351875,0,0.348125,0.34625,0.341875,0.336875,0.33375,0.330625,0.32875,0.329375,0.329375,0.329375,0.329375,0.33,0.329375,0.329375,0.329375,0.32875,0.32875,0.32875,0.329375,0.329375,0.329375,0.329375,0.329375,0.329375,0.329375,0.329375,0.329375,0.329375,0.32875,0.329375,0.329375,0.329375,0,0.874375,0.8525,0.8275,0.794375,0.753125,0.705,0.6525,0.6,0.546875,0.494375,0.441875,0.385625,0.3275,0.27,0.22625,0.20875,0.219375,0.246875,0.276875,0.301875,0.32125,0.328125,0.32875,0.32875,0.32875,0.329375,0.32875,0.329375,0.329375,0.329375,0.329375,0.32875,0,0.32875,0.32875,0.32875,0.32875,0.329375,0.33,0.329375,0.329375,0.32875,0.32875,0.32875,0.329375,0.329375,0.329375,0.329375,0.33,0.329375,0.33,0.329375,0.32875,0.32875,0.329375,0.329375,0.32875,0.329375,0.329375,0.33,0.329375,0.32875,0.330625,0.33375,0.334375,0,0.33625,0.34,0.3425,0.34625,0.34625,0.34625,0.348125,0.351875,0.3525,0.3525,0.355,0.358125,0.358125,0.358125,0.36125,0.36375,0.364375,0.366875,0.3725,0.378125,0.383125,0.38625,0.39,0.39625,0.4025,0.408125,0.413125,0.419375,0.425625,0.43125,0.4375,0.443125,0,0.45,0.455625,0.46125,0.463125,0.46625,0.4675,0.47125,0.4725,0.474375,0.4775,0.47875,0.479375,0.4775,0.475,0.473125,0.47125,0.4675,0.464375,0.46125,0.45875,0.455625,0.4525,0.4475,0.441875,0.43875,0.43625,0.430625,0.426875,0.42375,0.4175,0.4125,0.406875,0,0.40125,0.398125,0.395625,0.391875,0.388125,0.3825,0.380625,0.3775,0.374375,0.37125,0.36875,0.365,0.3625,0.359375,0.358125,0.35625,0.3525,0.35125,0.34625,0.3425,0.34,0.33625,0.334375,0.334375,0.333125,0.329375,0.32875,0.32875,0.329375,0.329375,0.329375,0.329375,0,0.329375,0.329375,0.329375,0.329375,0.329375,0.32875,0.32875,0.329375,0.329375,0.329375,0.329375,0.329375,0.32875,0.32875,0.32875,0.329375,0.329375,0.329375,0.329375,0.329375,0.329375,0.32875,0.32875,0.32875,0.328125,0.32875,0.329375,0.329375,0.32875,0.329375,0.33,0.329375,0,0.32875,0.32875,0.32875,0.32875,0.33,0.329375,0.329375,0.33,0.33,0.329375,0.32875,0.32875,0.32875,0.32875,0.329375,0.329375,0.329375,0.33,0.329375,0.32875,0.32875,0.329375,0.329375,0.329375,0.329375,0.329375,0.329375,0.329375,0.329375,0.32875,0.32875,0.32875,0,0.32875,0.329375,0.329375,0.329375,0.33,0.329375,0.329375,0.329375,0.329375,0.329375,0.32875,0.329375,0.329375,0.329375,0.329375,0.329375,0.329375,0.329375,0.329375,0.329375,0.32875,0.329375,0.329375,0.329375,0.329375,0.33,0.33,0.32875,0.32875,0.32875,0.32875,0.329375,0,0.329375,0.33,0.33,0.33,0.329375,0.32875,0.328125,0.32875,0.32875,0.329375,0.329375,0.329375,0.33,0.329375,0.329375,0.329375,0.329375,0.329375,0.32875,0.329375,0.329375,0.329375,0.33,0.33,0.329375,0.32875,0.32875,0.32875,0.32875,0.329375,0.32875,0.33,0,0.380625,0.380625,0.38125,0.380625,0.37875,0.375625,0.375,0.374375,0.37375,0.37125,0.369375,0.36875,0.364375,0.361875,0.358125,0.35625,0.353125,0.350625,0.3475,0.345,0.339375,0.335,0.3325,0.33,0.329375,0.329375,0.329375,0.329375,0.329375,0.329375,0.329375,0.329375,0,0.286875,0.3,0.324375,0.3625,0.410625,0.4625,0.515625,0.568125,0.62,0.6725,0.725625,0.778125,0.821875,0.85375,0.874375,0.886875,0.89125,0.88375,0.865,0.84125,0.813125,0.77625,0.730625,0.68,0.628125,0.575625,0.5225,0.47,0.415625,0.358125,0.3,0.2475,0,0.215,0.210625,0.231875,0.26125,0.289375,0.311875,0.32625,0.32875,0.32875,0.329375,0.33,0.33,0.329375,0.329375,0.329375,0.329375,0.328125,0.32875,0.32875,0.32875,0.329375,0.329375,0.329375,0.329375,0.329375,0.329375,0.329375,0.32875,0.329375,0.329375,0.329375,0.329375,0,0.329375,0.329375,0.329375,0.32875,0.32875,0.329375,0.32875,0.32875,0.329375,0.329375,0.329375,0.329375,0.329375,0.33,0.33,0.3325,0.33375,0.335,0.338125,0.34125,0.344375,0.34625,0.346875,0.3475,0.35,0.351875,0.351875,0.353125,0.3575,0.35875,0.358125,0.36,0,0.363125,0.364375,0.365,0.369375,0.375625,0.38125,0.385625,0.388125,0.39375,0.399375,0.405,0.410625,0.415625,0.4225,0.428125,0.434375,0.440625,0.44625,0.4525,0.45875,0.46125,0.46375,0.46625,0.469375,0.4725,0.473125,0.47625,0.47875,0.479375,0.47875,0.475625,0.4725,0,0.471875,0.46875,0.466875,0.46375,0.460625,0.4575,0.454375,0.450625,0.445,0.44,0.4375,0.4325,0.4275,0.425625,0.42125,0.415,0.409375,0.403125,0.39875,0.39625,0.393125,0.39,0.385,0.381875,0.379375,0.375625,0.373125,0.37,0.366875,0.36375,0.36125,0.358125,0,0.356875,0.355,0.3525,0.35,0.344375,0.34125,0.338125,0.335625,0.335,0.33375,0.331875,0.329375,0.329375,0.33,0.329375,0.329375,0.33,0.329375,0.329375,0.32875,0.32875,0.329375,0.32875,0.329375,0.329375,0.329375,0.329375,0.329375,0.32875,0.329375,0.32875,0.329375,0,0.329375,0.329375,0.33,0.330625,0.33,0.329375,0.32875,0.32875,0.32875,0.329375,0.329375,0.329375,0.33,0.33,0.33,0.329375,0.32875,0.32875,0.329375,0.329375,0.329375,0.33,0.33,0.33,0.33,0.329375,0.32875,0.329375,0.329375,0.329375,0.329375,0.329375,0,0.33,0.33,0.33,0.329375,0.329375,0.329375,0.32875,0.32875,0.329375,0.33,0.33,0.33,0.33,0.329375,0.32875,0.329375,0.329375,0.32875,0.329375,0.33,0.33,0.33,0.33,0.329375,0.329375,0.329375,0.32875,0.329375,0.329375,0.33,0.33,0.33,0,0.33,0.329375,0.329375,0.329375,0.32875,0.329375,0.329375,0.329375,0.33,0.33,0.33,0.329375,0.329375,0.329375,0.32875,0.329375,0.329375,0.33,0.329375,0.33,0.330625,0.329375,0.32875,0.329375,0.329375,0.32875,0.32875,0.329375,0.33,0.33,0.329375,0.329375,0,0.32875,0.32875,0.329375,0.329375,0.329375,0.329375,0.33,0.33,0.33,0.33,0.329375,0.329375,0.32875,0.329375,0.33,0.33,0.33,0.33,0.33,0.329375,0.329375,0.32875,0.32875,0.329375,0.329375,0.33,0.329375,0.32875,0.329375,0.329375,0.32875,0.3225,0,0.3575,0.35375,0.351875,0.34875,0.3475,0.343125,0.3375,0.334375,0.33125,0.329375,0.329375,0.329375,0.329375,0.329375,0.33,0.33,0.329375,0.32875,0.32875,0.32875,0.329375,0.329375,0.33,0.33,0.329375,0.329375,0.32875,0.32875,0.329375,0.329375,0.329375,0.329375,0,0.88125,0.89,0.88875,0.875625,0.85375,0.82875,0.7975,0.755625,0.708125,0.65625,0.603125,0.550625,0.4975,0.445,0.389375,0.33125,0.273125,0.22875,0.21,0.21875,0.245625,0.274375,0.300625,0.320625,0.32875,0.32875,0.32875,0.329375,0.329375,0.33,0.33,0.329375,0,0.32875,0.32875,0.328125,0.328125,0.328125,0.329375,0.329375,0.329375,0.329375,0.329375,0.329375,0.32875,0.32875,0.329375,0.32875,0.32875,0.329375,0.329375,0.329375,0.329375,0.329375,0.329375,0.32875,0.32875,0.329375,0.329375,0.32875,0.329375,0.33,0.329375,0.329375,0.329375,0,0.33,0.333125,0.335,0.33625,0.34,0.3425,0.345625,0.34625,0.34625,0.3475,0.35125,0.351875,0.35125,0.355,0.358125,0.358125,0.358125,0.360625,0.363125,0.363125,0.36625,0.371875,0.378125,0.383125,0.386875,0.39,0.395625,0.40125,0.4075,0.41375,0.419375,0.425,0,0.43125,0.436875,0.4425,0.449375,0.455,0.46,0.4625,0.465,0.4675,0.471875,0.473125,0.474375,0.478125,0.48,0.479375,0.4775,0.474375,0.4725,0.47125,0.468125,0.46625,0.4625,0.46,0.456875,0.45375,0.448125,0.4425,0.438125,0.435625,0.43,0.426875,0.424375,0,0.41875,0.413125,0.406875,0.40125,0.398125,0.394375,0.39125,0.38875,0.38375,0.38125,0.378125,0.374375,0.370625,0.368125,0.365,0.3625,0.35875,0.358125,0.356875,0.353125,0.35125,0.346875,0.3425,0.34,0.33625,0.334375,0.33375,0.333125,0.330625,0.329375,0.329375,0.329375,0,0.329375,0.329375,0.329375,0.32875,0.32875,0.32875,0.32875,0.32875,0.33,0.329375,0.33,0.33,0.33,0.329375,0.329375,0.329375,0.329375,0.329375,0.329375,0.33,0.329375,0.329375,0.329375,0.329375,0.32875,0.32875,0.329375,0.329375,0.33,0.33,0.330625,0.33,0,0.329375,0.32875,0.32875,0.32875,0.32875,0.329375,0.329375,0.329375,0.33,0.329375,0.329375,0.329375,0.329375,0.329375,0.32875,0.329375,0.329375,0.329375,0.329375,0.32875,0.32875,0.329375,0.329375,0.32875,0.32875,0.329375,0.329375,0.33,0.33,0.33,0.329375,0.329375,0,0.32875,0.32875,0.32875,0.329375,0.33,0.330625,0.33,0.329375,0.329375,0.32875,0.32875,0.32875,0.329375,0.329375,0.33,0.330625,0.33,0.33,0.329375,0.329375,0.329375,0.329375,0.329375,0.329375,0.33,0.32875,0.329375,0.329375,0.329375,0.32875,0.329375,0.32875,0,0.32875,0.329375,0.33,0.33,0.33,0.33,0.33,0.33,0.329375,0.329375,0.329375,0.329375,0.33,0.329375,0.329375,0.33,0.329375,0.33,0.32875,0.32875,0.329375,0.329375,0.329375,0.329375,0.329375,0.329375,0.329375,0.32875,0.32875,0.32875,0.32875,0.329375,0,0.380625,0.380625,0.380625,0.380625,0.380625,0.38,0.38,0.38,0.376875,0.375,0.374375,0.37375,0.37,0.36875,0.3675,0.364375,0.363125,0.35875,0.35625,0.353125,0.350625,0.3475,0.345,0.339375,0.335,0.3325,0.329375,0.329375,0.33,0.33,0.33,0.33,0,0.303125,0.2925,0.284375,0.286875,0.299375,0.3225,0.359375,0.4075,0.46,0.5125,0.565,0.6175,0.670625,0.72375,0.775625,0.82,0.853125,0.87375,0.88625,0.890625,0.88375,0.86625,0.843125,0.815,0.77875,0.733125,0.683125,0.630625,0.578125,0.524375,0.47125,0.418125,0,0.36125,0.303125,0.249375,0.21625,0.210625,0.230625,0.26,0.2875,0.310625,0.325625,0.32875,0.32875,0.33,0.33,0.330625,0.33,0.329375,0.329375,0.329375,0.329375,0.329375,0.329375,0.329375,0.329375,0.329375,0.33,0.33,0.329375,0.329375,0.32875,0.32875,0.32875,0,0.329375,0.329375,0.33,0.33,0.329375,0.329375,0.32875,0.32875,0.32875,0.329375,0.329375,0.33,0.33,0.330625,0.329375,0.329375,0.329375,0.329375,0.331875,0.335,0.335625,0.338125,0.34125,0.344375,0.34625,0.34625,0.346875,0.35,0.3525,0.3525,0.353125,0.35625,0,0.358125,0.358125,0.35875,0.361875,0.36375,0.365,0.369375,0.375,0.38125,0.385625,0.388125,0.3925,0.39875,0.405,0.41,0.415625,0.421875,0.428125,0.435,0.44,0.445625,0.451875,0.4575,0.46125,0.46375,0.46625,0.469375,0.473125,0.473125,0.475625,0.47875,0.47875,0,0.47875,0.475,0.4725,0.471875,0.47,0.4675,0.464375,0.46125,0.4575,0.455,0.450625,0.445,0.439375,0.436875,0.4325,0.428125,0.425625,0.42125,0.415625,0.409375,0.40375,0.39875,0.39625,0.3925,0.390625,0.385625,0.3825,0.38,0.375625,0.3725,0.369375,0.366875,0,0.36375,0.360625,0.358125,0.3575,0.355,0.351875,0.349375,0.344375,0.34125,0.3375,0.335,0.33375,0.334375,0.331875,0.33,0.329375,0.329375,0.329375,0.329375,0.32875,0.32875,0.32875,0.329375,0.329375,0.329375,0.33,0.33,0.33,0.329375,0.329375,0.329375,0.32875,0,0.32875,0.329375,0.329375,0.33,0.33,0.329375,0.329375,0.329375,0.32875,0.328125,0.32875,0.32875,0.329375,0.329375,0.329375,0.329375,0.329375,0.329375,0.329375,0.32875,0.32875,0.32875,0.329375,0.33,0.33,0.33,0.329375,0.32875,0.32875,0.329375,0.329375,0.329375,0,0.329375,0.33,0.33,0.33,0.329375,0.329375,0.329375,0.32875,0.329375,0.329375,0.329375,0.33,0.33,0.33,0.329375,0.329375,0.32875,0.328125,0.329375,0.329375,0.329375,0.329375,0.32875,0.329375,0.329375,0.329375,0.32875,0.329375,0.32875,0.329375,0.329375,0.329375,0,0.33,0.329375,0.329375,0.33,0.329375,0.32875,0.32875,0.329375,0.33,0.329375,0.329375,0.329375,0.329375,0.329375,0.329375,0.32875,0.329375,0.329375,0.329375,0.32875,0.329375,0.329375,0.329375,0.32875,0.32875,0.32875,0.32875,0.329375,0.329375,0.329375,0.33,0.329375,0,0.32875,0.329375,0.329375,0.32875,0.32875,0.32875,0.328125,0.329375,0.329375,0.329375,0.329375,0.329375,0.32875,0.328125,0.32875,0.329375,0.329375,0.32875,0.33,0.33,0.329375,0.329375,0.32875,0.32875,0.329375,0.329375,0.33,0.329375,0.329375,0.33,0.329375,0.32875,0,0.36625,0.36375,0.360625,0.3575,0.354375,0.351875,0.348125,0.345625,0.341875,0.335625,0.333125,0.33,0.329375,0.329375,0.329375,0.329375,0.329375,0.32875,0.33,0.329375,0.329375,0.32875,0.32875,0.32875,0.33,0.330625,0.33,0.329375,0.329375,0.328125,0.328125,0.32875,0,0.80125,0.83875,0.865625,0.880625,0.889375,0.888125,0.875625,0.85375,0.828125,0.796875,0.755,0.706875,0.655,0.60125,0.54875,0.49625,0.4425,0.388125,0.330625,0.2725,0.228125,0.20875,0.21875,0.245625,0.274375,0.300625,0.32125,0.32875,0.32875,0.329375,0.32875,0.329375,0,0.329375,0.32875,0.32875,0.328125,0.328125,0.32875,0.329375,0.329375,0.329375,0.329375,0.329375,0.329375,0.32875,0.32875,0.32875,0.329375,0.329375,0.32875,0.329375,0.33,0.329375,0.329375,0.329375,0.329375,0.32875,0.32875,0.329375,0.33,0.329375,0.33,0.329375,0.329375,0,0.329375,0.32875,0.329375,0.33125,0.334375,0.335,0.33625,0.339375,0.341875,0.345,0.34625,0.34625,0.3475,0.35125,0.351875,0.353125,0.355625,0.3575,0.3575,0.358125,0.36125,0.363125,0.36375,0.36625,0.371875,0.378125,0.38375,0.386875,0.39,0.39625,0.401875,0.4075,0,0.413125,0.419375,0.425,0.43125,0.436875,0.443125,0.449375,0.455,0.459375,0.46125,0.465,0.4675,0.471875,0.473125,0.475,0.478125,0.47875,0.47875,0.476875,0.473125,0.471875,0.47125,0.468125,0.465625,0.4625,0.46,0.45625,0.453125,0.4475,0.44125,0.438125,0.435,0,0.43,0.426875,0.424375,0.41875,0.4125,0.40625,0.400625,0.3975,0.394375,0.391875,0.388125,0.38375,0.38125,0.3775,0.374375,0.37125,0.368125,0.365,0.3625,0.35875,0.3575,0.356875,0.35375,0.35125,0.346875,0.341875,0.339375,0.335625,0.335,0.335,0.333125,0.33,0,0.329375,0.33,0.33,0.329375,0.329375,0.32875,0.329375,0.329375,0.329375,0.329375,0.329375,0.33,0.329375,0.32875,0.32875,0.32875,0.32875,0.32875,0.32875,0.329375,0.329375,0.329375,0.329375,0.329375,0.32875,0.32875,0.32875,0.32875,0.329375,0.329375,0.329375,0.329375,0,0.329375,0.32875,0.329375,0.329375,0.32875,0.32875,0.329375,0.329375,0.33,0.329375,0.329375,0.329375,0.329375,0.32875,0.32875,0.32875,0.329375,0.32875,0.329375,0.329375,0.329375,0.329375,0.329375,0.32875,0.32875,0.32875,0.32875,0.329375,0.329375,0.329375,0.329375,0.32875,0,0.32875,0.32875,0.328125,0.32875,0.32875,0.329375,0.33,0.329375,0.329375,0.329375,0.32875,0.32875,0.32875,0.329375,0.329375,0.329375,0.33,0.33,0.329375,0.329375,0.329375,0.32875,0.32875,0.32875,0.32875,0.329375,0.329375,0.33,0.329375,0.329375,0.329375,0.329375,0,0.32875,0.329375,0.33,0.329375,0.33,0.329375,0.329375,0.33,0.329375,0.32875,0.329375,0.329375,0.32875,0.329375,0.33,0.33,0.329375,0.329375,0.329375,0.32875,0.32875,0.329375,0.329375,0.329375,0.329375,0.33,0.329375,0.329375,0.32875,0.32875,0.32875,0.32875,0,0.375625,0.379375,0.380625,0.380625,0.380625,0.38,0.380625,0.380625,0.380625,0.38125,0.38,0.37625,0.375,0.374375,0.37375,0.37,0.36875,0.3675,0.36375,0.361875,0.35875,0.35625,0.3525,0.35,0.346875,0.34375,0.33875,0.335,0.333125,0.33,0.329375,0.329375,0,0.329375,0.329375,0.32875,0.32875,0.32875,0.32875,0.329375,0.33,0.33,0.33,0.33,0.329375,0.32875,0.32875,0.329375,0.329375,0.329375,0.32875,0.329375,0.33,0.33,0.329375,0.32875,0.329375,0.32875,0.32875,0.329375,0.329375,0.329375,0.329375,0.33,0.3275,0,0.520625,0.4675,0.41375,0.356875,0.298125,0.24625,0.215,0.210625,0.2325,0.260625,0.28875,0.311875,0.32625,0.32875,0.329375,0.329375,0.329375,0.32875,0.32875,0.32875,0.32875,0.32875,0.328125,0.32875,0.329375,0.329375,0.329375,0.329375,0.329375,0.32875,0.328125,0.32875,0,0.329375,0.329375,0.329375,0.329375,0.329375,0.32875,0.328125,0.328125,0.328125,0.32875,0.32875,0.32875,0.32875,0.329375,0.329375,0.329375,0.32875,0.32875,0.32875,0.328125,0.32875,0.331875,0.334375,0.335,0.33875,0.340625,0.34375,0.34625,0.345625,0.34625,0.35,0.3525,0,0.3525,0.35375,0.3575,0.358125,0.358125,0.35875,0.3625,0.363125,0.365,0.37,0.375625,0.38125,0.385,0.3875,0.393125,0.39875,0.404375,0.41,0.41625,0.423125,0.42875,0.435,0.440625,0.44625,0.451875,0.4575,0.46125,0.46375,0.466875,0.47,0.4725,0.473125,0,0.475625,0.478125,0.478125,0.478125,0.475,0.473125,0.471875,0.469375,0.4675,0.46375,0.46125,0.4575,0.455,0.45,0.44375,0.43875,0.436875,0.4325,0.428125,0.42625,0.42125,0.415,0.40875,0.4025,0.39875,0.395625,0.3925,0.39,0.385625,0.38125,0.37875,0.375,0,0.371875,0.36875,0.365625,0.3625,0.36,0.3575,0.356875,0.355,0.3525,0.349375,0.34375,0.34,0.336875,0.334375,0.335,0.33375,0.331875,0.329375,0.329375,0.329375,0.329375,0.32875,0.329375,0.329375,0.329375,0.32875,0.32875,0.329375,0.329375,0.329375,0.329375,0.329375,0,0.32875,0.329375,0.329375,0.329375,0.33,0.329375,0.329375,0.329375,0.32875,0.329375,0.32875,0.32875,0.32875,0.32875,0.329375,0.33,0.33,0.32875,0.32875,0.32875,0.32875,0.328125,0.32875,0.32875,0.329375,0.329375,0.329375,0.32875,0.32875,0.32875,0.32875,0.328125,0,0.32875,0.329375,0.329375,0.329375,0.32875,0.329375,0.329375,0.329375,0.32875,0.328125,0.32875,0.32875,0.329375,0.329375,0.329375,0.329375,0.32875,0.32875,0.32875,0.32875,0.32875,0.329375,0.329375,0.329375,0.329375,0.329375,0.33,0.329375,0.32875,0.32875,0.329375,0.329375,0,0.329375,0.329375,0.329375,0.329375,0.329375,0.329375,0.329375,0.328125,0.329375,0.33,0.329375,0.32875,0.329375,0.329375,0.329375,0.32875,0.32875,0.328125,0.32875,0.329375,0.329375,0.329375,0.329375,0.329375,0.329375,0.329375,0.32875,0.32875,0.32875,0.32875,0.329375,0.33,0,0.329375,0.329375,0.329375,0.329375,0.329375,0.329375,0.329375,0.329375,0.329375,0.33,0.33,0.33,0.329375,0.32875,0.32875,0.32875,0.329375,0.33,0.329375,0.329375,0.33,0.33,0.329375,0.32875,0.32875,0.32875,0.32875,0.329375,0.33,0.329375,0.329375,0.329375,0,0.371875,0.36875,0.36875,0.36625,0.36375,0.360625,0.358125,0.354375,0.351875,0.3475,0.345,0.34125,0.33625,0.334375,0.33125,0.33,0.32875,0.329375,0.329375,0.32875,0.32875,0.32875,0.328125,0.32875,0.329375,0.329375,0.33,0.33,0.329375,0.329375,0.329375,0.32875,0,0.650625,0.703125,0.755625,0.804375,0.84125,0.866875,0.88125,0.889375,0.8875,0.874375,0.8525,0.826875,0.79375,0.751875,0.703125,0.65,0.5975,0.545,0.49125,0.43875,0.38375,0.325625,0.268125,0.225625,0.20875,0.22,0.246875,0.27625,0.301875,0.3225,0.32875,0.329375,0,0.329375,0.329375,0.329375,0.32875,0.328125,0.32875,0.32875,0.329375,0.329375,0.329375,0.329375,0.329375,0.329375,0.32875,0.329375,0.32875,0.32875,0.32875,0.329375,0.329375,0.329375,0.33,0.329375,0.32875,0.32875,0.32875,0.329375,0.329375,0.32875,0.329375,0.329375,0.329375,0,0.329375,0.329375,0.32875,0.32875,0.32875,0.329375,0.33125,0.334375,0.335625,0.336875,0.34,0.341875,0.345625,0.345625,0.345625,0.348125,0.35125,0.3525,0.353125,0.355625,0.358125,0.3575,0.3575,0.36,0.363125,0.363125,0.366875,0.373125,0.37875,0.38375,0.386875,0.390625,0,0.395625,0.40125,0.4075,0.41375,0.42,0.42625,0.4325,0.4375,0.443125,0.449375,0.455625,0.459375,0.461875,0.465625,0.468125,0.471875,0.473125,0.475,0.47875,0.479375,0.478125,0.476875,0.47375,0.473125,0.471875,0.46875,0.46625,0.461875,0.45875,0.455,0.4525,0.446875,0,0.441875,0.43875,0.435625,0.43,0.426875,0.42375,0.4175,0.411875,0.405625,0.4,0.3975,0.39375,0.39125,0.3875,0.383125,0.38,0.376875,0.373125,0.37,0.3675,0.364375,0.363125,0.359375,0.358125,0.356875,0.35375,0.35125,0.345625,0.34125,0.338125,0.335,0.33375,0,0.334375,0.33375,0.330625,0.33,0.329375,0.329375,0.33,0.32875,0.32875,0.329375,0.32875,0.329375,0.329375,0.329375,0.329375,0.32875,0.32875,0.32875,0.32875,0.329375,0.329375,0.329375,0.329375,0.329375,0.329375,0.329375,0.329375,0.32875,0.329375,0.329375,0.329375,0.329375,0,0.329375,0.329375,0.329375,0.32875,0.32875,0.32875,0.32875,0.329375,0.329375,0.329375,0.329375,0.33,0.329375,0.329375,0.329375,0.329375,0.329375,0.329375,0.33,0.330625,0.33,0.33,0.329375,0.32875,0.329375,0.32875,0.32875,0.32875,0.329375,0.329375,0.329375,0.33,0,0.33,0.329375,0.329375,0.329375,0.329375,0.329375,0.329375,0.329375,0.329375,0.32875,0.329375,0.329375,0.329375,0.329375,0.329375,0.329375,0.329375,0.33,0.329375,0.329375,0.329375,0.32875,0.32875,0.329375,0.32875,0.328125,0.329375,0.329375,0.329375,0.33,0.329375,0.329375,0,0.329375,0.32875,0.32875,0.329375,0.329375,0.33,0.329375,0.33,0.329375,0.33,0.329375,0.329375,0.32875,0.32875,0.32875,0.32875,0.33,0.33,0.33,0.329375,0.32875,0.32875,0.32875,0.329375,0.329375,0.33,0.33,0.329375,0.33,0.329375,0.329375,0.329375,0,0.3725,0.375,0.375,0.375625,0.37875,0.380625,0.38,0.38,0.38,0.380625,0.380625,0.38125,0.38125,0.38,0.37625,0.375,0.375,0.373125,0.37,0.369375,0.3675,0.364375,0.3625,0.35875,0.35625,0.3525,0.35,0.345625,0.343125,0.33875,0.335,0.3325,0,0.33,0.329375,0.33,0.329375,0.32875,0.328125,0.328125,0.328125,0.329375,0.329375,0.33,0.33,0.329375,0.32875,0.329375,0.329375,0.329375,0.329375,0.329375,0.329375,0.329375,0.33,0.33,0.329375,0.32875,0.32875,0.329375,0.32875,0.329375,0.329375,0.329375,0.329375,0,0.674375,0.621875,0.569375,0.51625,0.46375,0.41,0.353125,0.29375,0.2425,0.213125,0.21125,0.234375,0.263125,0.290625,0.31375,0.3275,0.329375,0.329375,0.329375,0.32875,0.329375,0.329375,0.32875,0.32875,0.329375,0.329375,0.33,0.329375,0.329375,0.329375,0.329375,0.329375,0,0.32875,0.32875,0.32875,0.329375,0.329375,0.329375,0.329375,0.32875,0.329375,0.32875,0.328125,0.329375,0.33,0.33,0.33,0.329375,0.329375,0.32875,0.32875,0.32875,0.32875,0.32875,0.32875,0.33,0.333125,0.335,0.335625,0.33875,0.34125,0.344375,0.34625,0.345625,0,0.346875,0.35125,0.3525,0.3525,0.35375,0.3575,0.358125,0.3575,0.35875,0.3625,0.36375,0.365625,0.370625,0.37625,0.381875,0.385,0.3875,0.39375,0.39875,0.405,0.41125,0.416875,0.42375,0.429375,0.435,0.440625,0.44625,0.451875,0.458125,0.46125,0.464375,0.466875,0,0.47,0.473125,0.47375,0.47625,0.4775,0.478125,0.478125,0.474375,0.4725,0.4725,0.47,0.4675,0.463125,0.460625,0.456875,0.45375,0.449375,0.444375,0.439375,0.436875,0.4325,0.428125,0.425625,0.420625,0.41375,0.408125,0.401875,0.398125,0.39625,0.393125,0.390625,0.385625,0,0.381875,0.37875,0.375,0.371875,0.36875,0.365625,0.363125,0.36,0.358125,0.3575,0.355,0.3525,0.34875,0.343125,0.34,0.3375,0.335,0.334375,0.334375,0.331875,0.33,0.33,0.329375,0.329375,0.32875,0.32875,0.329375,0.329375,0.329375,0.33,0.33,0.329375,0,0.329375,0.329375,0.329375,0.32875,0.329375,0.33,0.33,0.33,0.33,0.329375,0.32875,0.32875,0.328125,0.328125,0.32875,0.329375,0.33,0.329375,0.329375,0.329375,0.32875,0.32875,0.329375,0.329375,0.32875,0.33,0.33,0.33,0.329375,0.329375,0.329375,0.329375,0,0.329375,0.32875,0.32875,0.32875,0.329375,0.329375,0.329375,0.329375,0.32875,0.32875,0.328125,0.328125,0.328125,0.32875,0.329375,0.329375,0.33,0.329375,0.329375,0.32875,0.32875,0.32875,0.329375,0.329375,0.329375,0.329375,0.329375,0.33,0.33,0.329375,0.32875,0.32875,0,0.329375,0.329375,0.32875,0.329375,0.329375,0.329375,0.329375,0.32875,0.32875,0.329375,0.329375,0.329375,0.329375,0.329375,0.329375,0.329375,0.32875,0.32875,0.32875,0.328125,0.329375,0.329375,0.329375,0.33,0.33,0.329375,0.32875,0.32875,0.329375,0.329375,0.329375,0.329375,0,0.329375,0.329375,0.329375,0.32875,0.329375,0.32875,0.32875,0.329375,0.33,0.329375,0.32875,0.329375,0.329375,0.32875,0.32875,0.32875,0.32875,0.32875,0.329375,0.33,0.329375,0.329375,0.329375,0.329375,0.329375,0.32875,0.32875,0.32875,0.32875,0.329375,0.329375,0.33,0,0.374375,0.374375,0.374375,0.37125,0.36875,0.36875,0.36625,0.363125,0.36,0.356875,0.353125,0.35125,0.3475,0.345,0.34125,0.33625,0.33375,0.330625,0.33,0.33,0.329375,0.329375,0.32875,0.32875,0.32875,0.32875,0.329375,0.33,0.329375,0.329375,0.33,0.329375,0,0.495625,0.549375,0.601875,0.654375,0.7075,0.759375,0.806875,0.8425,0.8675,0.8825,0.89,0.8875,0.8725,0.850625,0.825,0.790625,0.7475,0.698125,0.645625,0.593125,0.540625,0.488125,0.435625,0.379375,0.32125,0.265,0.22375,0.208125,0.221875,0.25,0.279375,0.305,0,0.323125,0.33,0.33,0.329375,0.329375,0.32875,0.32875,0.32875,0.329375,0.329375,0.329375,0.33,0.329375,0.32875,0.329375,0.329375,0.32875,0.329375,0.329375,0.329375,0.329375,0.329375,0.329375,0.329375,0.32875,0.32875,0.32875,0.329375,0.32875,0.329375,0.33,0.329375,0,0.329375,0.329375,0.32875,0.32875,0.329375,0.329375,0.32875,0.32875,0.329375,0.33125,0.334375,0.335,0.336875,0.34,0.3425,0.345,0.345625,0.34625,0.349375,0.3525,0.3525,0.353125,0.35625,0.3575,0.3575,0.358125,0.36125,0.363125,0.364375,0.368125,0.37375,0.379375,0,0.38375,0.38625,0.39,0.39625,0.403125,0.40875,0.415,0.42125,0.426875,0.4325,0.438125,0.443125,0.449375,0.455625,0.46,0.4625,0.46625,0.46875,0.4725,0.473125,0.474375,0.4775,0.478125,0.478125,0.47625,0.473125,0.473125,0.470625,0.4675,0.465,0.46125,0.45875,0,0.455,0.451875,0.446875,0.441875,0.43875,0.435625,0.43,0.426875,0.4225,0.416875,0.41125,0.405,0.399375,0.3975,0.39375,0.391875,0.3875,0.383125,0.380625,0.376875,0.374375,0.370625,0.368125,0.36375,0.361875,0.35875,0.358125,0.356875,0.3525,0.350625,0.34625,0.34125,0,0.33875,0.335625,0.335,0.335,0.333125,0.33,0.329375,0.329375,0.32875,0.32875,0.32875,0.329375,0.329375,0.33,0.329375,0.329375,0.329375,0.329375,0.329375,0.32875,0.32875,0.329375,0.329375,0.33,0.329375,0.329375,0.329375,0.329375,0.329375,0.329375,0.329375,0.329375,0,0.329375,0.329375,0.32875,0.329375,0.329375,0.329375,0.328125,0.32875,0.329375,0.329375,0.329375,0.329375,0.33,0.329375,0.32875,0.32875,0.32875,0.32875,0.329375,0.329375,0.329375,0.329375,0.329375,0.329375,0.329375,0.32875,0.32875,0.32875,0.329375,0.329375,0.32875,0.329375,0,0.329375,0.329375,0.329375,0.329375,0.329375,0.329375,0.329375,0.329375,0.329375,0.33,0.329375,0.32875,0.32875,0.32875,0.32875,0.328125,0.329375,0.329375,0.329375,0.329375,0.329375,0.329375,0.329375,0.329375,0.32875,0.32875,0.329375,0.33,0.329375,0.329375,0.329375,0.329375,0,0.329375,0.329375,0.32875,0.32875,0.32875,0.329375,0.33,0.33,0.329375,0.329375,0.33,0.329375,0.32875,0.328125,0.32875,0.32875,0.329375,0.33,0.329375,0.329375,0.329375,0.329375,0.329375,0.329375,0.32875,0.329375,0.329375,0.32875,0.32875,0.329375,0.32875,0.329375,0,0.36,0.36375,0.3675,0.3725,0.375,0.375625,0.376875,0.379375,0.380625,0.38,0.38,0.380625,0.380625,0.38125,0.38125,0.38125,0.379375,0.375625,0.374375,0.374375,0.373125,0.37,0.369375,0.368125,0.364375,0.361875,0.35875,0.355,0.351875,0.349375,0.345625,0.34375,0,0.338125,0.335,0.3325,0.329375,0.32875,0.329375,0.329375,0.329375,0.32875,0.32875,0.329375,0.329375,0.329375,0.329375,0.329375,0.329375,0.32875,0.328125,0.32875,0.329375,0.329375,0.329375,0.329375,0.329375,0.329375,0.32875,0.32875,0.32875,0.329375,0.32875,0.329375,0.33,0,0.8075,0.76875,0.721875,0.67,0.6175,0.565,0.5125,0.459375,0.40625,0.349375,0.29,0.23875,0.21125,0.2125,0.236875,0.266875,0.29375,0.31625,0.328125,0.329375,0.329375,0.329375,0.32875,0.32875,0.328125,0.329375,0.329375,0.33,0.33,0.33,0.329375,0.329375,0,0.32875,0.32875,0.32875,0.32875,0.329375,0.329375,0.329375,0.329375,0.329375,0.329375,0.329375,0.32875,0.32875,0.329375,0.329375,0.33,0.33,0.33,0.329375,0.32875,0.32875,0.32875,0.32875,0.329375,0.329375,0.329375,0.330625,0.333125,0.335,0.335,0.338125,0.340625,0,0.344375,0.34625,0.346875,0.3475,0.350625,0.351875,0.351875,0.354375,0.3575,0.3575,0.358125,0.359375,0.3625,0.36375,0.36625,0.37125,0.376875,0.381875,0.385625,0.388125,0.39375,0.4,0.40625,0.411875,0.4175,0.42375,0.429375,0.435625,0.44125,0.44625,0.4525,0.458125,0,0.461875,0.465,0.4675,0.470625,0.4725,0.47375,0.476875,0.47875,0.47875,0.4775,0.475,0.47375,0.4725,0.46875,0.46625,0.463125,0.46,0.45625,0.45375,0.449375,0.44375,0.439375,0.436875,0.431875,0.428125,0.425,0.42,0.41375,0.4075,0.4025,0.39875,0.39625,0,0.393125,0.39,0.384375,0.38125,0.378125,0.375,0.371875,0.36875,0.36625,0.36375,0.360625,0.358125,0.356875,0.354375,0.35125,0.348125,0.343125,0.340625,0.336875,0.335,0.335,0.335,0.331875,0.329375,0.32875,0.32875,0.329375,0.329375,0.329375,0.329375,0.329375,0.329375,0,0.329375,0.32875,0.32875,0.329375,0.329375,0.329375,0.329375,0.329375,0.33,0.329375,0.329375,0.32875,0.32875,0.328125,0.328125,0.328125,0.32875,0.329375,0.329375,0.329375,0.329375,0.329375,0.32875,0.328125,0.32875,0.329375,0.329375,0.329375,0.33,0.329375,0.32875,0.32875,0,0.329375,0.32875,0.32875,0.32875,0.329375,0.329375,0.33,0.33,0.329375,0.329375,0.32875,0.329375,0.32875,0.329375,0.329375,0.32875,0.33,0.329375,0.329375,0.32875,0.32875,0.329375,0.329375,0.329375,0.329375,0.32875,0.329375,0.329375,0.329375,0.329375,0.32875,0.32875,0,0.329375,0.329375,0.329375,0.329375,0.329375,0.329375,0.329375,0.32875,0.328125,0.32875,0.329375,0.329375,0.32875,0.329375,0.329375,0.329375,0.32875,0.32875,0.32875,0.32875,0.329375,0.32875,0.32875,0.329375,0.329375,0.329375,0.32875,0.32875,0.329375,0.32875,0.32875,0.32875,0,0.32875,0.32875,0.329375,0.33,0.329375,0.329375,0.32875,0.328125,0.328125,0.32875,0.329375,0.32875,0.329375,0.33,0.329375,0.329375,0.329375,0.329375,0.329375,0.32875,0.32875,0.329375,0.329375,0.329375,0.33,0.33,0.329375,0.32875,0.32875,0.32875,0.32875,0.32875,0,0.38125,0.380625,0.376875,0.374375,0.374375,0.373125,0.370625,0.369375,0.369375,0.36625,0.363125,0.359375,0.356875,0.3525,0.350625,0.346875,0.345,0.340625,0.33625,0.33375,0.330625,0.329375,0.329375,0.329375,0.32875,0.32875,0.32875,0.329375,0.329375,0.329375,0.329375,0.329375,0,0.35,0.395625,0.4475,0.500625,0.553125,0.605625,0.65875,0.71125,0.763125,0.81,0.845625,0.87,0.884375,0.89125,0.886875,0.87125,0.84875,0.8225,0.788125,0.74375,0.69375,0.641875,0.58875,0.536875,0.484375,0.430625,0.374375,0.31625,0.26,0.220625,0.208125,0.223125,0,0.2525,0.28125,0.30625,0.324375,0.32875,0.329375,0.32875,0.32875,0.329375,0.32875,0.32875,0.329375,0.329375,0.329375,0.33,0.329375,0.329375,0.329375,0.32875,0.329375,0.329375,0.33,0.33,0.33,0.33,0.33,0.33,0.329375,0.32875,0.329375,0.329375,0.329375,0,0.329375,0.329375,0.329375,0.32875,0.32875,0.329375,0.329375,0.32875,0.329375,0.33,0.33,0.33,0.331875,0.334375,0.335,0.3375,0.34,0.343125,0.34625,0.34625,0.346875,0.349375,0.351875,0.351875,0.351875,0.355625,0.3575,0.3575,0.35875,0.36125,0.363125,0.364375,0,0.36875,0.37375,0.379375,0.384375,0.386875,0.39125,0.3975,0.403125,0.40875,0.415,0.42125,0.426875,0.4325,0.4375,0.443125,0.449375,0.45625,0.460625,0.463125,0.46625,0.469375,0.4725,0.4725,0.474375,0.478125,0.47875,0.47875,0.47625,0.473125,0.4725,0.47125,0.4675,0,0.465,0.461875,0.458125,0.455,0.451875,0.446875,0.441875,0.43875,0.435,0.42875,0.42625,0.421875,0.415625,0.41,0.404375,0.399375,0.3975,0.394375,0.391875,0.386875,0.381875,0.379375,0.37625,0.373125,0.369375,0.3675,0.364375,0.361875,0.35875,0.3575,0.355625,0.351875,0,0.35,0.345625,0.34125,0.33875,0.335,0.334375,0.334375,0.3325,0.33,0.32875,0.32875,0.329375,0.329375,0.329375,0.32875,0.329375,0.33,0.32875,0.32875,0.32875,0.32875,0.32875,0.32875,0.328125,0.329375,0.329375,0.33,0.329375,0.32875,0.32875,0.32875,0.32875,0,0.329375,0.329375,0.33,0.329375,0.32875,0.32875,0.328125,0.32875,0.329375,0.32875,0.32875,0.329375,0.329375,0.329375,0.329375,0.329375,0.32875,0.32875,0.329375,0.329375,0.32875,0.329375,0.33,0.33,0.329375,0.329375,0.328125,0.32875,0.32875,0.32875,0.32875,0.329375,0,0.329375,0.33,0.329375,0.32875,0.32875,0.32875,0.32875,0.32875,0.329375,0.329375,0.329375,0.32875,0.32875,0.329375,0.32875,0.32875,0.32875,0.32875,0.329375,0.329375,0.329375,0.33,0.33,0.33,0.329375,0.32875,0.32875,0.32875,0.32875,0.329375,0.329375,0.32875,0,0.33,0.329375,0.329375,0.329375,0.32875,0.328125,0.32875,0.32875,0.329375,0.33,0.329375,0.329375,0.32875,0.328125,0.32875,0.32875,0.329375,0.32875,0.329375,0.329375,0.329375,0.329375,0.329375,0.32875,0.32875,0.32875,0.32875,0.329375,0.33,0.329375,0.329375,0.329375,0,0.34,0.345,0.351875,0.36,0.364375,0.368125,0.3725,0.374375,0.375,0.375625,0.37875,0.38,0.38,0.38,0.380625,0.380625,0.380625,0.380625,0.38125,0.379375,0.375,0.374375,0.374375,0.373125,0.37,0.36875,0.3675,0.364375,0.36125,0.3575,0.355,0.35125,0,0.34875,0.34625,0.343125,0.3375,0.334375,0.331875,0.329375,0.32875,0.32875,0.32875,0.329375,0.329375,0.329375,0.33,0.33,0.329375,0.32875,0.329375,0.329375,0.32875,0.32875,0.329375,0.329375,0.33,0.33,0.329375,0.329375,0.329375,0.329375,0.329375,0.329375,0.329375,0,0.879375,0.85875,0.834375,0.804375,0.765,0.718125,0.66625,0.61375,0.56125,0.50875,0.45625,0.40125,0.343125,0.285,0.235625,0.210625,0.21375,0.23875,0.26875,0.295625,0.3175,0.328125,0.32875,0.32875,0.32875,0.32875,0.32875,0.32875,0.329375,0.329375,0.33,0.33,0,0.329375,0.32875,0.32875,0.32875,0.32875,0.32875,0.329375,0.329375,0.329375,0.33,0.329375,0.32875,0.329375,0.32875,0.32875,0.32875,0.329375,0.329375,0.329375,0.329375,0.329375,0.32875,0.329375,0.329375,0.32875,0.329375,0.329375,0.329375,0.329375,0.330625,0.33375,0.334375,0,0.335,0.33875,0.34125,0.345,0.346875,0.3475,0.348125,0.35125,0.3525,0.3525,0.354375,0.3575,0.3575,0.35875,0.360625,0.363125,0.36375,0.36625,0.37125,0.376875,0.381875,0.385,0.388125,0.39375,0.400625,0.406875,0.4125,0.41875,0.425,0.429375,0.435,0.440625,0,0.4475,0.45375,0.459375,0.461875,0.465,0.4675,0.470625,0.4725,0.4725,0.47625,0.478125,0.47875,0.478125,0.475,0.473125,0.4725,0.468125,0.465625,0.461875,0.45875,0.455625,0.45375,0.44875,0.443125,0.439375,0.436875,0.43125,0.426875,0.42375,0.41875,0.413125,0.4075,0,0.401875,0.39875,0.39625,0.391875,0.389375,0.384375,0.380625,0.378125,0.374375,0.37125,0.369375,0.36625,0.36375,0.360625,0.358125,0.356875,0.35375,0.35125,0.346875,0.3425,0.34,0.33625,0.335,0.335,0.334375,0.330625,0.32875,0.32875,0.329375,0.33,0.33,0.329375,0,0.329375,0.329375,0.329375,0.32875,0.32875,0.32875,0.32875,0.32875,0.329375,0.329375,0.329375,0.329375,0.33,0.329375,0.329375,0.329375,0.33,0.33,0.329375,0.329375,0.329375,0.329375,0.32875,0.329375,0.329375,0.328125,0.32875,0.329375,0.33,0.329375,0.33,0.329375,0,0.329375,0.329375,0.329375,0.329375,0.329375,0.32875,0.329375,0.330625,0.33,0.329375,0.329375,0.329375,0.329375,0.329375,0.32875,0.329375,0.329375,0.33,0.33,0.329375,0.32875,0.32875,0.329375,0.32875,0.32875,0.32875,0.329375,0.33,0.33,0.329375,0.329375,0.329375,0,0.32875,0.32875,0.329375,0.329375,0.329375,0.33,0.329375,0.329375,0.329375,0.32875,0.329375,0.32875,0.32875,0.329375,0.329375,0.33,0.33,0.329375,0.329375,0.329375,0.32875,0.329375,0.328125,0.32875,0.329375,0.33,0.329375,0.329375,0.329375,0.329375,0.329375,0.32875,0,0.32875,0.32875,0.32875,0.329375,0.329375,0.329375,0.329375,0.32875,0.32875,0.329375,0.329375,0.329375,0.33,0.33,0.33,0.33,0.329375,0.32875,0.329375,0.329375,0.329375,0.33,0.33,0.33,0.33,0.329375,0.32875,0.32875,0.328125,0.32875,0.32875,0.32875,0,0.380625,0.38125,0.38125,0.380625,0.38,0.37625,0.374375,0.374375,0.374375,0.37125,0.369375,0.369375,0.36625,0.363125,0.35875,0.35625,0.353125,0.350625,0.346875,0.345,0.34,0.335625,0.33375,0.33,0.32875,0.32875,0.32875,0.32875,0.329375,0.33,0.33,0.33,0,0.285625,0.29625,0.3175,0.353125,0.4,0.4525,0.505,0.5575,0.61,0.6625,0.715,0.7675,0.81375,0.84875,0.871875,0.885,0.89125,0.88625,0.869375,0.846875,0.819375,0.78375,0.74,0.69,0.638125,0.585625,0.533125,0.48,0.42625,0.37,0.31125,0.255625,0,0.219375,0.20875,0.22625,0.255,0.28375,0.308125,0.325,0.329375,0.329375,0.32875,0.32875,0.329375,0.329375,0.32875,0.329375,0.329375,0.329375,0.32875,0.328125,0.328125,0.32875,0.32875,0.329375,0.32875,0.32875,0.329375,0.329375,0.329375,0.32875,0.32875,0.32875,0.329375,0,0.33,0.329375,0.32875,0.329375,0.329375,0.32875,0.329375,0.328125,0.328125,0.32875,0.32875,0.32875,0.329375,0.329375,0.329375,0.33125,0.33375,0.334375,0.3375,0.340625,0.343125,0.345625,0.345625,0.34625,0.34875,0.35125,0.351875,0.351875,0.355,0.356875,0.3575,0.35875,0,0.361875,0.36375,0.364375,0.368125,0.37375,0.379375,0.384375,0.38625,0.39125,0.3975,0.403125,0.409375,0.415,0.42125,0.426875,0.4325,0.438125,0.444375,0.450625,0.456875,0.460625,0.46375,0.46625,0.46875,0.471875,0.471875,0.475,0.478125,0.47875,0.47875,0.47625,0.47375,0,0.4725,0.47,0.46625,0.46375,0.46,0.4575,0.455,0.451875,0.445625,0.44,0.438125,0.434375,0.42875,0.425625,0.421875,0.41625,0.41,0.404375,0.4,0.3975,0.39375,0.39125,0.386875,0.3825,0.38,0.37625,0.37375,0.37,0.368125,0.364375,0.361875,0.35875,0,0.3575,0.355,0.351875,0.35,0.345625,0.34125,0.33875,0.335,0.334375,0.33375,0.3325,0.329375,0.329375,0.329375,0.329375,0.329375,0.33,0.32875,0.329375,0.329375,0.32875,0.328125,0.329375,0.329375,0.329375,0.33,0.33,0.33,0.329375,0.32875,0.32875,0.32875,0,0.32875,0.329375,0.329375,0.329375,0.329375,0.329375,0.33,0.33,0.33,0.32875,0.32875,0.329375,0.33,0.33,0.329375,0.329375,0.329375,0.32875,0.32875,0.32875,0.32875,0.32875,0.329375,0.329375,0.32875,0.329375,0.329375,0.329375,0.329375,0.329375,0.32875,0.32875,0,0.329375,0.33,0.33,0.33,0.329375,0.329375,0.32875,0.32875,0.32875,0.32875,0.32875,0.329375,0.33,0.33,0.329375,0.329375,0.329375,0.32875,0.329375,0.329375,0.329375,0.329375,0.32875,0.33,0.329375,0.32875,0.32875,0.32875,0.32875,0.329375,0.32875,0.329375,0,0.33,0.33,0.329375,0.329375,0.32875,0.32875,0.32875,0.32875,0.32875,0.329375,0.33,0.329375,0.329375,0.32875,0.32875,0.329375,0.329375,0.32875,0.329375,0.329375,0.33,0.329375,0.329375,0.329375,0.32875,0.32875,0.329375,0.32875,0.329375,0.329375,0.329375,0.329375,0,0.329375,0.329375,0.32875,0.32875,0.32875,0.329375,0.33,0.33,0.33,0.329375,0.329375,0.329375,0.329375,0.329375,0.329375,0.329375,0.329375,0.329375,0.329375,0.329375,0.329375,0.32875,0.32875,0.32875,0.32875,0.329375,0.329375,0.329375,0.329375,0.33,0.329375,0.32875,0,0.3575,0.354375,0.351875,0.34875,0.345625,0.343125,0.338125,0.335,0.33125,0.329375,0.329375,0.329375,0.33,0.329375,0.329375,0.329375,0.329375,0.329375,0.329375,0.32875,0.32875,0.329375,0.329375,0.329375,0.329375,0.329375,0.33,0.33,0.329375,0.32875,0.32875,0.32875,0,0.87875,0.889375,0.89,0.879375,0.859375,0.835,0.804375,0.76375,0.7175,0.66625,0.613125,0.560625,0.508125,0.455,0.4,0.3425,0.28375,0.235,0.210625,0.214375,0.239375,0.269375,0.29625,0.3175,0.3275,0.32875,0.32875,0.32875,0.329375,0.329375,0.33,0.33,0,0.329375,0.329375,0.32875,0.32875,0.32875,0.329375,0.33,0.33,0.33,0.33,0.329375,0.329375,0.32875,0.32875,0.32875,0.32875,0.32875,0.329375,0.329375,0.329375,0.329375,0.33,0.32875,0.32875,0.329375,0.329375,0.329375,0.329375,0.33,0.33,0.33,0.33,0,0.33,0.333125,0.335,0.335,0.339375,0.341875,0.345625,0.346875,0.34625,0.346875,0.350625,0.351875,0.351875,0.35375,0.356875,0.3575,0.35875,0.360625,0.36375,0.36375,0.365625,0.37125,0.37625,0.381875,0.385625,0.389375,0.395,0.400625,0.406875,0.4125,0.41875,0.424375,0,0.429375,0.435,0.44125,0.4475,0.45375,0.45875,0.46125,0.465,0.4675,0.470625,0.4725,0.47375,0.4775,0.47875,0.479375,0.478125,0.474375,0.473125,0.471875,0.46875,0.46625,0.4625,0.46,0.455625,0.45375,0.449375,0.44375,0.43875,0.436875,0.43125,0.4275,0.424375,0,0.419375,0.41375,0.4075,0.401875,0.398125,0.395625,0.3925,0.38875,0.38375,0.38125,0.378125,0.375,0.371875,0.369375,0.365625,0.3625,0.36,0.358125,0.356875,0.35375,0.35125,0.3475,0.343125,0.34,0.336875,0.335,0.335,0.33375,0.33,0.329375,0.329375,0.33,0,0.329375,0.33,0.33,0.329375,0.329375,0.329375,0.329375,0.329375,0.329375,0.329375,0.329375,0.329375,0.329375,0.33,0.33,0.329375,0.329375,0.32875,0.329375,0.329375,0.329375,0.329375,0.329375,0.32875,0.329375,0.32875,0.328125,0.32875,0.329375,0.329375,0.329375,0.329375,0,0.329375,0.329375,0.32875,0.328125,0.32875,0.32875,0.32875,0.32875,0.329375,0.329375,0.329375,0.329375,0.329375,0.32875,0.32875,0.32875,0.32875,0.329375,0.329375,0.329375,0.329375,0.33,0.329375,0.329375,0.329375,0.329375,0.32875,0.329375,0.33,0.33,0.33,0.33,0,0.329375,0.329375,0.32875,0.32875,0.32875,0.32875,0.329375,0.329375,0.33,0.329375,0.329375,0.329375,0.32875,0.32875,0.32875,0.329375,0.33,0.33,0.33,0.33,0.329375,0.329375,0.32875,0.32875,0.329375,0.329375,0.330625,0.33,0.329375,0.329375,0.32875,0.329375,0,0.32875,0.32875,0.32875,0.32875,0.329375,0.329375,0.329375,0.329375,0.32875,0.32875,0.329375,0.32875,0.329375,0.33,0.329375,0.329375,0.329375,0.329375,0.329375,0.329375,0.329375,0.32875,0.329375,0.329375,0.33,0.329375,0.329375,0.329375,0.329375,0.32875,0.32875,0.32875,0,0.380625,0.380625,0.380625,0.380625,0.380625,0.380625,0.380625,0.380625,0.3775,0.375,0.375,0.374375,0.371875,0.37,0.36875,0.365,0.3625,0.35875,0.356875,0.35375,0.35125,0.348125,0.345,0.34,0.335625,0.333125,0.33,0.32875,0.329375,0.329375,0.329375,0.33,0,0.305,0.295625,0.285625,0.285625,0.29625,0.316875,0.35125,0.396875,0.44875,0.501875,0.554375,0.60625,0.66,0.7125,0.765,0.811875,0.8475,0.870625,0.884375,0.890625,0.88625,0.870625,0.8475,0.820625,0.78625,0.743125,0.69375,0.64125,0.58875,0.53625,0.483125,0.43,0,0.373125,0.314375,0.258125,0.220625,0.209375,0.225,0.25375,0.2825,0.3075,0.324375,0.329375,0.32875,0.329375,0.33,0.330625,0.33,0.33,0.33,0.33,0.329375,0.329375,0.32875,0.329375,0.32875,0.329375,0.329375,0.329375,0.33,0.329375,0.32875,0.32875,0.32875,0,0.32875,0.32875,0.33,0.33,0.33,0.33,0.329375,0.329375,0.329375,0.329375,0.329375,0.329375,0.32875,0.329375,0.33,0.329375,0.329375,0.33,0.331875,0.334375,0.335,0.3375,0.34,0.343125,0.34625,0.346875,0.34625,0.34875,0.351875,0.35125,0.3525,0.35625,0,0.358125,0.358125,0.35875,0.36125,0.363125,0.36375,0.368125,0.37375,0.379375,0.384375,0.386875,0.39125,0.3975,0.40375,0.409375,0.415,0.420625,0.42625,0.433125,0.438125,0.444375,0.45125,0.456875,0.46125,0.463125,0.46625,0.46875,0.471875,0.473125,0.475,0.479375,0.47875,0,0.47875,0.47625,0.473125,0.4725,0.47,0.466875,0.46375,0.46125,0.458125,0.455625,0.453125,0.446875,0.44125,0.438125,0.434375,0.429375,0.42625,0.4225,0.416875,0.41125,0.405625,0.400625,0.3975,0.39375,0.390625,0.38625,0.3825,0.38,0.376875,0.37375,0.370625,0.368125,0,0.365,0.361875,0.358125,0.3575,0.355625,0.3525,0.35,0.345625,0.34125,0.339375,0.335625,0.334375,0.334375,0.331875,0.329375,0.33,0.329375,0.329375,0.329375,0.32875,0.329375,0.329375,0.32875,0.32875,0.329375,0.32875,0.32875,0.329375,0.33,0.33,0.329375,0.32875,0,0.329375,0.32875,0.32875,0.329375,0.329375,0.329375,0.33,0.329375,0.329375,0.329375,0.32875,0.32875,0.32875,0.32875,0.329375,0.329375,0.329375,0.33,0.33,0.329375,0.329375,0.32875,0.329375,0.32875,0.32875,0.329375,0.329375,0.329375,0.33,0.329375,0.329375,0.32875,0,0.329375,0.329375,0.329375,0.33,0.329375,0.32875,0.329375,0.329375,0.329375,0.329375,0.329375,0.329375,0.329375,0.33,0.329375,0.32875,0.329375,0.32875,0.32875,0.32875,0.329375,0.33,0.33,0.33,0.33,0.329375,0.32875,0.32875,0.328125,0.328125,0.32875,0.329375,0,0.329375,0.33,0.329375,0.32875,0.329375,0.329375,0.32875,0.329375,0.329375,0.329375,0.329375,0.33,0.329375,0.329375,0.329375,0.329375,0.329375,0.329375,0.32875,0.329375,0.329375,0.329375,0.33,0.329375,0.329375,0.329375,0.32875,0.32875,0.32875,0.32875,0.329375,0.33,0,0.329375,0.329375,0.329375,0.329375,0.32875,0.32875,0.329375,0.329375,0.329375,0.329375,0.33,0.33,0.329375,0.329375,0.329375,0.329375,0.329375,0.33,0.329375,0.329375,0.33,0.329375,0.32875,0.32875,0.32875,0.32875,0.32875,0.329375,0.329375,0.329375,0.329375,0.329375,0,0.366875,0.364375,0.361875,0.358125,0.354375,0.3525,0.349375,0.34625,0.343125,0.3375,0.335,0.331875,0.329375,0.33,0.33,0.33,0.33,0.33,0.329375,0.33,0.329375,0.32875,0.329375,0.33,0.329375,0.329375,0.33,0.33,0.329375,0.329375,0.32875,0.329375,0,0.78875,0.83,0.86,0.8775,0.888125,0.889375,0.88,0.86,0.835625,0.80625,0.766875,0.720625,0.66875,0.61625,0.56375,0.51125,0.458125,0.40375,0.34625,0.288125,0.238125,0.211875,0.21375,0.238125,0.2675,0.294375,0.31625,0.3275,0.329375,0.329375,0.329375,0.329375,0,0.329375,0.33,0.329375,0.329375,0.32875,0.32875,0.329375,0.329375,0.329375,0.329375,0.329375,0.329375,0.329375,0.329375,0.329375,0.329375,0.329375,0.329375,0.329375,0.33,0.33,0.33,0.329375,0.329375,0.329375,0.32875,0.32875,0.329375,0.329375,0.329375,0.329375,0.33,0,0.33,0.329375,0.329375,0.33,0.333125,0.334375,0.335,0.339375,0.341875,0.345,0.34625,0.345625,0.346875,0.350625,0.3525,0.3525,0.354375,0.358125,0.358125,0.358125,0.36,0.363125,0.363125,0.365625,0.370625,0.37625,0.381875,0.38625,0.389375,0.395,0.400625,0.40625,0,0.411875,0.418125,0.423125,0.429375,0.435,0.44125,0.4475,0.453125,0.45875,0.461875,0.464375,0.46625,0.47,0.473125,0.47375,0.4775,0.48,0.479375,0.47875,0.474375,0.4725,0.471875,0.46875,0.466875,0.463125,0.460625,0.456875,0.45375,0.449375,0.44375,0.439375,0.436875,0,0.431875,0.4275,0.425,0.42,0.414375,0.408125,0.4025,0.39875,0.39625,0.393125,0.389375,0.384375,0.381875,0.379375,0.375625,0.371875,0.369375,0.36625,0.363125,0.36,0.3575,0.356875,0.354375,0.351875,0.34875,0.343125,0.340625,0.336875,0.335,0.334375,0.33375,0.33125,0,0.329375,0.32875,0.329375,0.33,0.33,0.32875,0.32875,0.32875,0.329375,0.329375,0.329375,0.329375,0.329375,0.33,0.329375,0.329375,0.32875,0.32875,0.32875,0.329375,0.329375,0.32875,0.32875,0.329375,0.329375,0.329375,0.329375,0.32875,0.32875,0.329375,0.329375,0.329375,0,0.329375,0.329375,0.33,0.329375,0.32875,0.32875,0.329375,0.329375,0.329375,0.329375,0.329375,0.329375,0.33,0.329375,0.32875,0.32875,0.32875,0.329375,0.329375,0.329375,0.33,0.33,0.33,0.329375,0.329375,0.32875,0.329375,0.32875,0.329375,0.329375,0.329375,0.329375,0,0.329375,0.329375,0.329375,0.32875,0.32875,0.32875,0.329375,0.329375,0.329375,0.33,0.33,0.329375,0.329375,0.329375,0.329375,0.329375,0.329375,0.33,0.329375,0.33,0.329375,0.329375,0.329375,0.33,0.329375,0.329375,0.329375,0.329375,0.33,0.33,0.33,0.329375,0,0.329375,0.329375,0.32875,0.32875,0.329375,0.329375,0.33,0.33,0.329375,0.329375,0.329375,0.32875,0.32875,0.32875,0.329375,0.329375,0.329375,0.33,0.329375,0.329375,0.329375,0.329375,0.329375,0.329375,0.329375,0.329375,0.33,0.329375,0.329375,0.328125,0.329375,0.32875,0,0.375,0.378125,0.380625,0.38125,0.380625,0.380625,0.380625,0.38125,0.380625,0.38,0.38,0.376875,0.374375,0.375,0.375,0.37125,0.36875,0.368125,0.365625,0.363125,0.359375,0.3575,0.35375,0.35125,0.348125,0.345,0.340625,0.335625,0.333125,0.33,0.32875,0.329375,0,0.32875,0.329375,0.329375,0.329375,0.32875,0.32875,0.32875,0.32875,0.329375,0.32875,0.32875,0.33,0.329375,0.329375,0.329375,0.329375,0.329375,0.32875,0.329375,0.329375,0.329375,0.33,0.329375,0.32875,0.32875,0.329375,0.32875,0.32875,0.32875,0.329375,0.329375,0.329375,0,0.538125,0.485625,0.4325,0.37625,0.318125,0.2625,0.2225,0.20875,0.22375,0.251875,0.28,0.305,0.32375,0.32875,0.32875,0.329375,0.329375,0.329375,0.329375,0.32875,0.329375,0.329375,0.329375,0.329375,0.329375,0.329375,0.33,0.330625,0.33,0.329375,0.329375,0.32875,0,0.328125,0.32875,0.32875,0.329375,0.329375,0.32875,0.32875,0.329375,0.329375,0.329375,0.329375,0.329375,0.329375,0.32875,0.329375,0.329375,0.33,0.33,0.329375,0.329375,0.329375,0.331875,0.334375,0.335,0.336875,0.340625,0.343125,0.345625,0.346875,0.346875,0.349375,0.351875,0,0.3525,0.353125,0.35625,0.35875,0.35875,0.35875,0.36125,0.36375,0.36375,0.3675,0.37375,0.379375,0.384375,0.386875,0.39125,0.3975,0.403125,0.40875,0.414375,0.42,0.42625,0.431875,0.438125,0.444375,0.45,0.45625,0.46,0.4625,0.46625,0.469375,0.4725,0.473125,0,0.475625,0.47875,0.479375,0.479375,0.47625,0.473125,0.4725,0.470625,0.4675,0.465,0.461875,0.45875,0.455,0.451875,0.44625,0.440625,0.438125,0.434375,0.429375,0.426875,0.42375,0.4175,0.41125,0.405,0.399375,0.396875,0.39375,0.39125,0.3875,0.3825,0.38,0.376875,0,0.37375,0.370625,0.368125,0.365,0.361875,0.35875,0.3575,0.35625,0.353125,0.35,0.345625,0.34125,0.33875,0.335,0.334375,0.334375,0.3325,0.329375,0.329375,0.33,0.329375,0.329375,0.329375,0.32875,0.32875,0.329375,0.329375,0.329375,0.329375,0.329375,0.329375,0.329375,0,0.32875,0.329375,0.32875,0.32875,0.32875,0.329375,0.329375,0.329375,0.329375,0.329375,0.329375,0.32875,0.32875,0.32875,0.329375,0.329375,0.329375,0.33,0.329375,0.329375,0.329375,0.329375,0.329375,0.32875,0.32875,0.32875,0.329375,0.329375,0.33,0.329375,0.33,0.329375,0,0.329375,0.33,0.32875,0.32875,0.329375,0.33,0.33,0.329375,0.329375,0.33,0.329375,0.329375,0.329375,0.329375,0.33,0.33,0.33,0.33,0.329375,0.329375,0.329375,0.329375,0.329375,0.329375,0.329375,0.33,0.33,0.329375,0.329375,0.329375,0.32875,0.329375,0,0.329375,0.329375,0.329375,0.329375,0.32875,0.32875,0.32875,0.329375,0.32875,0.32875,0.329375,0.329375,0.33,0.33,0.33,0.33,0.329375,0.32875,0.32875,0.32875,0.32875,0.329375,0.329375,0.329375,0.33,0.33,0.329375,0.329375,0.329375,0.32875,0.32875,0.32875,0,0.329375,0.329375,0.33,0.33,0.329375,0.329375,0.32875,0.32875,0.329375,0.329375,0.329375,0.33,0.33,0.33,0.32875,0.32875,0.329375,0.32875,0.329375,0.329375,0.329375,0.329375,0.33,0.329375,0.329375,0.32875,0.32875,0.32875,0.32875,0.32875,0.329375,0.329375,0,0.37375,0.37,0.36875,0.366875,0.36375,0.36125,0.358125,0.35625,0.353125,0.349375,0.34625,0.3425,0.3375,0.334375,0.331875,0.329375,0.32875,0.329375,0.329375,0.329375,0.32875,0.329375,0.329375,0.329375,0.32875,0.32875,0.32875,0.329375,0.329375,0.329375,0.329375,0.329375,0,0.62875,0.68125,0.734375,0.785625,0.8275,0.858125,0.876875,0.8875,0.89,0.88,0.86125,0.838125,0.808125,0.769375,0.723125,0.671875,0.618125,0.56625,0.51375,0.46125,0.406875,0.34875,0.29125,0.240625,0.2125,0.2125,0.23625,0.265625,0.2925,0.315,0.326875,0.32875,0,0.32875,0.329375,0.33,0.33,0.32875,0.32875,0.32875,0.32875,0.329375,0.329375,0.329375,0.33,0.33,0.329375,0.329375,0.329375,0.329375,0.329375,0.329375,0.32875,0.329375,0.33,0.329375,0.329375,0.329375,0.32875,0.329375,0.329375,0.329375,0.32875,0.329375,0.33,0,0.329375,0.329375,0.329375,0.32875,0.329375,0.32875,0.329375,0.3325,0.334375,0.335,0.33875,0.341875,0.345,0.34625,0.34625,0.346875,0.350625,0.351875,0.3525,0.35375,0.3575,0.358125,0.358125,0.36,0.3625,0.363125,0.365,0.370625,0.376875,0.3825,0.38625,0.389375,0,0.394375,0.4,0.40625,0.41125,0.416875,0.423125,0.43,0.435625,0.44125,0.446875,0.453125,0.45875,0.46125,0.464375,0.466875,0.470625,0.473125,0.474375,0.476875,0.479375,0.479375,0.478125,0.475,0.473125,0.4725,0.46875,0.466875,0.46375,0.460625,0.456875,0.45375,0.449375,0,0.443125,0.43875,0.436875,0.431875,0.428125,0.425625,0.42125,0.415,0.408125,0.4025,0.398125,0.395625,0.3925,0.39,0.385,0.38125,0.379375,0.37625,0.371875,0.36875,0.365625,0.3625,0.36,0.35875,0.3575,0.355,0.3525,0.348125,0.343125,0.340625,0.336875,0.334375,0,0.33375,0.334375,0.331875,0.33,0.33,0.33,0.32875,0.329375,0.32875,0.32875,0.32875,0.32875,0.329375,0.329375,0.33,0.33,0.329375,0.329375,0.32875,0.329375,0.329375,0.32875,0.329375,0.329375,0.33,0.329375,0.33,0.329375,0.32875,0.32875,0.32875,0.32875,0,0.329375,0.329375,0.329375,0.329375,0.329375,0.329375,0.32875,0.32875,0.32875,0.329375,0.329375,0.329375,0.329375,0.329375,0.329375,0.329375,0.329375,0.329375,0.32875,0.329375,0.329375,0.329375,0.33,0.329375,0.32875,0.329375,0.32875,0.32875,0.32875,0.329375,0.329375,0.33,0,0.33,0.33,0.33,0.329375,0.329375,0.32875,0.329375,0.329375,0.329375,0.329375,0.329375,0.329375,0.329375,0.329375,0.32875,0.32875,0.329375,0.32875,0.329375,0.33,0.329375,0.329375,0.329375,0.329375,0.32875,0.32875,0.32875,0.329375,0.329375,0.329375,0.329375,0.329375,0,0.329375,0.329375,0.32875,0.32875,0.329375,0.329375,0.329375,0.33,0.33,0.33,0.329375,0.32875,0.329375,0.329375,0.32875,0.329375,0.33,0.329375,0.33,0.33,0.329375,0.329375,0.32875,0.329375,0.329375,0.329375,0.329375,0.329375,0.329375,0.33,0.329375,0.329375,0,0.37,0.37375,0.375,0.375625,0.378125,0.380625,0.380625,0.380625,0.380625,0.380625,0.38,0.380625,0.380625,0.38125,0.378125,0.375,0.375,0.37375,0.37125,0.369375,0.36875,0.365625,0.363125,0.36,0.3575,0.354375,0.35125,0.348125,0.345,0.34125,0.33625,0.333125,0,0.330625,0.330625,0.330625,0.33,0.329375,0.329375,0.329375,0.32875,0.32875,0.32875,0.329375,0.329375,0.329375,0.33,0.329375,0.32875,0.329375,0.32875,0.32875,0.329375,0.329375,0.329375,0.329375,0.32875,0.329375,0.329375,0.32875,0.32875,0.32875,0.328125,0.329375,0.33,0,0.699375,0.6475,0.594375,0.541875,0.48875,0.435625,0.38,0.3225,0.265625,0.225,0.209375,0.2225,0.250625,0.279375,0.304375,0.323125,0.329375,0.329375,0.329375,0.33,0.33,0.329375,0.32875,0.329375,0.32875,0.32875,0.32875,0.329375,0.329375,0.33,0.329375,0.32875,0,0.32875,0.329375,0.328125,0.328125,0.32875,0.329375,0.329375,0.329375,0.329375,0.329375,0.329375,0.32875,0.32875,0.329375,0.33,0.33,0.329375,0.33,0.329375,0.329375,0.329375,0.32875,0.329375,0.329375,0.33125,0.334375,0.335,0.336875,0.340625,0.3425,0.345625,0.345625,0,0.34625,0.348125,0.351875,0.3525,0.353125,0.35625,0.35875,0.358125,0.3575,0.36125,0.363125,0.36375,0.366875,0.373125,0.37875,0.384375,0.38625,0.390625,0.39625,0.401875,0.408125,0.41375,0.42,0.42625,0.431875,0.438125,0.44375,0.45,0.455,0.459375,0.461875,0.465625,0,0.468125,0.4725,0.473125,0.475,0.478125,0.47875,0.478125,0.47625,0.47375,0.473125,0.470625,0.4675,0.465,0.461875,0.45875,0.455,0.451875,0.446875,0.440625,0.4375,0.434375,0.429375,0.426875,0.423125,0.418125,0.41125,0.405,0.4,0.396875,0.39375,0.39125,0.388125,0,0.383125,0.38125,0.376875,0.373125,0.369375,0.3675,0.36375,0.361875,0.35875,0.3575,0.356875,0.35375,0.350625,0.34625,0.341875,0.339375,0.335,0.334375,0.334375,0.333125,0.33,0.329375,0.329375,0.329375,0.32875,0.32875,0.32875,0.32875,0.329375,0.329375,0.329375,0.329375,0,0.329375,0.329375,0.329375,0.32875,0.32875,0.328125,0.32875,0.329375,0.329375,0.329375,0.329375,0.329375,0.329375,0.32875,0.32875,0.32875,0.32875,0.32875,0.329375,0.329375,0.329375,0.329375,0.32875,0.329375,0.32875,0.329375,0.329375,0.32875,0.329375,0.329375,0.329375,0.329375,0,0.32875,0.32875,0.32875,0.32875,0.329375,0.329375,0.329375,0.329375,0.33,0.329375,0.329375,0.32875,0.32875,0.32875,0.329375,0.33,0.33,0.33,0.329375,0.329375,0.32875,0.328125,0.328125,0.32875,0.32875,0.32875,0.329375,0.33,0.329375,0.329375,0.329375,0.32875,0,0.329375,0.329375,0.329375,0.32875,0.329375,0.329375,0.329375,0.329375,0.32875,0.329375,0.329375,0.329375,0.32875,0.32875,0.329375,0.329375,0.329375,0.329375,0.329375,0.329375,0.32875,0.32875,0.32875,0.32875,0.329375,0.329375,0.329375,0.329375,0.329375,0.32875,0.329375,0.329375,0,0.33,0.329375,0.329375,0.329375,0.329375,0.329375,0.329375,0.32875,0.32875,0.32875,0.329375,0.329375,0.329375,0.329375,0.329375,0.32875,0.329375,0.329375,0.329375,0.329375,0.329375,0.329375,0.33,0.329375,0.329375,0.32875,0.329375,0.32875,0.328125,0.32875,0.32875,0.32875,0,0.37625,0.374375,0.374375,0.373125,0.37,0.36875,0.366875,0.364375,0.3625,0.35875,0.355,0.3525,0.35,0.34625,0.343125,0.338125,0.335,0.3325,0.329375,0.329375,0.329375,0.329375,0.32875,0.329375,0.32875,0.32875,0.329375,0.329375,0.329375,0.329375,0.329375,0.329375,0,0.468125,0.52,0.573125,0.625625,0.678125,0.731875,0.783125,0.825625,0.85625,0.875,0.8875,0.890625,0.8825,0.863125,0.839375,0.810625,0.7725,0.72625,0.675,0.6225,0.569375,0.516875,0.464375,0.410625,0.353125,0.295,0.243125,0.21375,0.211875,0.235,0.263125,0.29125,0,0.314375,0.3275,0.33,0.329375,0.329375,0.329375,0.329375,0.329375,0.32875,0.32875,0.32875,0.329375,0.329375,0.329375,0.329375,0.32875,0.32875,0.32875,0.32875,0.329375,0.329375,0.329375,0.329375,0.329375,0.329375,0.329375,0.32875,0.32875,0.329375,0.328125,0.328125,0.32875,0,0.32875,0.329375,0.32875,0.32875,0.32875,0.328125,0.328125,0.32875,0.32875,0.329375,0.333125,0.335,0.335625,0.33875,0.340625,0.34375,0.345,0.345625,0.34625,0.349375,0.351875,0.351875,0.353125,0.3575,0.358125,0.358125,0.359375,0.3625,0.36375,0.365625,0.37,0.375625,0,0.381875,0.385625,0.388125,0.393125,0.399375,0.405,0.41125,0.416875,0.423125,0.429375,0.435,0.44,0.44625,0.4525,0.458125,0.46125,0.46375,0.466875,0.47125,0.473125,0.47375,0.47625,0.478125,0.478125,0.4775,0.474375,0.4725,0.47125,0.469375,0.4675,0.463125,0.460625,0,0.456875,0.45375,0.44875,0.443125,0.439375,0.4375,0.4325,0.4275,0.425625,0.42125,0.414375,0.408125,0.4025,0.398125,0.39625,0.393125,0.390625,0.385625,0.381875,0.379375,0.375,0.3725,0.36875,0.36625,0.363125,0.360625,0.35875,0.358125,0.355625,0.3525,0.349375,0.343125,0,0.34,0.336875,0.335,0.334375,0.334375,0.33125,0.32875,0.329375,0.329375,0.32875,0.32875,0.32875,0.329375,0.329375,0.33,0.33,0.33,0.329375,0.329375,0.329375,0.329375,0.32875,0.32875,0.329375,0.329375,0.32875,0.329375,0.33,0.329375,0.32875,0.32875,0.32875,0,0.329375,0.329375,0.329375,0.33,0.329375,0.32875,0.329375,0.32875,0.32875,0.32875,0.32875,0.329375,0.33,0.329375,0.329375,0.329375,0.329375,0.32875,0.32875,0.32875,0.32875,0.329375,0.329375,0.329375,0.33,0.329375,0.329375,0.32875,0.32875,0.329375,0.329375,0.329375,0,0.32875,0.329375,0.33,0.329375,0.329375,0.329375,0.32875,0.32875,0.32875,0.329375,0.329375,0.329375,0.329375,0.32875,0.32875,0.32875,0.32875,0.32875,0.32875,0.329375,0.33,0.33,0.329375,0.329375,0.329375,0.32875,0.32875,0.329375,0.329375,0.32875,0.329375,0.329375,0,0.329375,0.329375,0.329375,0.329375,0.32875,0.32875,0.32875,0.329375,0.33,0.33,0.329375,0.329375,0.329375,0.32875,0.32875,0.32875,0.329375,0.329375,0.33,0.33,0.329375,0.329375,0.329375,0.32875,0.32875,0.329375,0.32875,0.329375,0.329375,0.33,0.329375,0.329375,0,0.35375,0.360625,0.36375,0.37,0.37375,0.375,0.375,0.376875,0.38,0.379375,0.379375,0.38,0.380625,0.380625,0.38125,0.380625,0.38125,0.378125,0.375,0.374375,0.374375,0.37125,0.36875,0.36875,0.36625,0.363125,0.359375,0.356875,0.353125,0.35125,0.3475,0.345,0,0.34125,0.33625,0.33375,0.330625,0.329375,0.329375,0.329375,0.32875,0.32875,0.329375,0.329375,0.329375,0.329375,0.329375,0.329375,0.329375,0.329375,0.32875,0.32875,0.32875,0.329375,0.329375,0.329375,0.329375,0.329375,0.329375,0.32875,0.32875,0.329375,0.328125,0.32875,0.329375,0,0.82625,0.793125,0.75,0.70125,0.64875,0.59625,0.54375,0.490625,0.4375,0.3825,0.32375,0.2675,0.225,0.20875,0.22125,0.24875,0.2775,0.303125,0.3225,0.32875,0.329375,0.329375,0.329375,0.329375,0.32875,0.32875,0.329375,0.329375,0.329375,0.329375,0.329375,0.32875,0,0.32875,0.329375,0.32875,0.32875,0.32875,0.32875,0.329375,0.33,0.329375,0.329375,0.329375,0.32875,0.329375,0.329375,0.32875,0.32875,0.32875,0.329375,0.329375,0.329375,0.32875,0.329375,0.32875,0.32875,0.32875,0.32875,0.329375,0.33125,0.33375,0.335,0.336875,0.34,0,0.341875,0.345,0.345625,0.34625,0.348125,0.351875,0.3525,0.353125,0.355,0.3575,0.3575,0.358125,0.36125,0.36375,0.36375,0.366875,0.373125,0.37875,0.383125,0.38625,0.39,0.395625,0.401875,0.4075,0.41375,0.420625,0.426875,0.4325,0.4375,0.443125,0.44875,0.455,0,0.46,0.461875,0.46625,0.46875,0.471875,0.473125,0.474375,0.4775,0.478125,0.47875,0.476875,0.473125,0.4725,0.470625,0.4675,0.465,0.461875,0.459375,0.455,0.451875,0.446875,0.44125,0.438125,0.435625,0.429375,0.426875,0.423125,0.4175,0.410625,0.405,0.400625,0.3975,0,0.394375,0.391875,0.388125,0.383125,0.38125,0.3775,0.37375,0.37,0.3675,0.364375,0.361875,0.35875,0.358125,0.356875,0.353125,0.350625,0.345625,0.340625,0.338125,0.335,0.334375,0.334375,0.333125,0.33,0.32875,0.32875,0.32875,0.32875,0.328125,0.32875,0.32875,0.329375,0,0.329375,0.329375,0.32875,0.32875,0.329375,0.329375,0.329375,0.32875,0.32875,0.329375,0.329375,0.329375,0.329375,0.32875,0.32875,0.32875,0.329375,0.328125,0.32875,0.32875,0.329375,0.329375,0.329375,0.329375,0.329375,0.32875,0.32875,0.32875,0.329375,0.329375,0.33,0.329375,0,0.32875,0.32875,0.32875,0.32875,0.32875,0.32875,0.32875,0.329375,0.329375,0.329375,0.329375,0.32875,0.32875,0.32875,0.32875,0.32875,0.32875,0.32875,0.329375,0.329375,0.329375,0.329375,0.32875,0.328125,0.328125,0.32875,0.329375,0.32875,0.32875,0.329375,0.329375,0.32875,0,0.32875,0.328125,0.328125,0.329375,0.329375,0.329375,0.329375,0.33,0.329375,0.32875,0.32875,0.32875,0.328125,0.32875,0.32875,0.32875,0.329375,0.329375,0.329375,0.32875,0.328125,0.328125,0.32875,0.32875,0.32875,0.329375,0.329375,0.329375,0.329375,0.32875,0.32875,0.32875,0,0.328125,0.32875,0.329375,0.33,0.33,0.33,0.33,0.33,0.329375,0.32875,0.32875,0.32875,0.329375,0.329375,0.329375,0.32875,0.32875,0.329375,0.32875,0.32875,0.328125,0.328125,0.32875,0.32875,0.329375,0.329375,0.329375,0.32875,0.32875,0.32875,0.32875,0.32875,0,0.38125,0.380625,0.37875,0.375625,0.37375,0.37375,0.373125,0.37,0.36875,0.3675,0.36375,0.36125,0.3575,0.354375,0.351875,0.34875,0.345625,0.343125,0.3375,0.334375,0.3325,0.329375,0.329375,0.32875,0.32875,0.328125,0.328125,0.32875,0.329375,0.32875,0.329375,0.33,0,0.3275,0.366875,0.41625,0.46875,0.521875,0.575,0.626875,0.68,0.733125,0.78375,0.82625,0.85625,0.875625,0.8875,0.890625,0.88125,0.8625,0.838125,0.809375,0.770625,0.72375,0.6725,0.619375,0.5675,0.515,0.461875,0.408125,0.350625,0.291875,0.24125,0.2125,0.21125,0,0.235,0.264375,0.2925,0.314375,0.3275,0.329375,0.32875,0.32875,0.32875,0.328125,0.32875,0.32875,0.329375,0.32875,0.329375,0.329375,0.329375,0.329375,0.32875,0.32875,0.32875,0.329375,0.329375,0.33,0.33,0.33,0.329375,0.32875,0.32875,0.328125,0.32875,0.329375,0,0.329375,0.329375,0.329375,0.329375,0.329375,0.329375,0.328125,0.328125,0.32875,0.329375,0.32875,0.329375,0.33,0.333125,0.335,0.335,0.338125,0.34,0.34375,0.345625,0.34625,0.3475,0.350625,0.3525,0.3525,0.353125,0.356875,0.3575,0.3575,0.359375,0.3625,0.36375,0,0.365,0.370625,0.37625,0.38125,0.385,0.3875,0.393125,0.4,0.405,0.41125,0.4175,0.42375,0.43,0.435625,0.440625,0.44625,0.451875,0.458125,0.461875,0.464375,0.466875,0.470625,0.4725,0.473125,0.476875,0.478125,0.478125,0.4775,0.475,0.473125,0.4725,0.469375,0,0.466875,0.4625,0.46,0.45625,0.45375,0.449375,0.444375,0.439375,0.436875,0.4325,0.4275,0.425625,0.42,0.41375,0.408125,0.4025,0.39875,0.395625,0.3925,0.39,0.384375,0.38125,0.378125,0.374375,0.37125,0.36875,0.36625,0.363125,0.360625,0.358125,0.356875,0.35375,0,0.35125,0.348125,0.3425,0.34,0.336875,0.335625,0.335625,0.335,0.33125,0.32875,0.328125,0.328125,0.328125,0.32875,0.32875,0.32875,0.32875,0.329375,0.32875,0.32875,0.32875,0.32875,0.32875,0.32875,0.329375,0.329375,0.329375,0.32875,0.329375,0.329375,0.32875,0.32875,0,0.32875,0.32875,0.32875,0.32875,0.329375,0.329375,0.329375,0.32875,0.32875,0.329375,0.329375,0.32875,0.328125,0.32875,0.329375,0.32875,0.32875,0.32875,0.328125,0.32875,0.328125,0.32875,0.32875,0.329375,0.329375,0.329375,0.33,0.329375,0.32875,0.32875,0.329375,0.32875,0,0.32875,0.32875,0.32875,0.329375,0.329375,0.329375,0.32875,0.328125,0.328125,0.32875,0.32875,0.32875,0.32875,0.329375,0.33,0.329375,0.329375,0.32875,0.32875,0.329375,0.329375,0.32875,0.329375,0.329375,0.329375,0.32875,0.32875,0.32875,0.32875,0.32875,0.32875,0.329375,0,0.32875,0.32875,0.329375,0.329375,0.32875,0.328125,0.329375,0.329375,0.32875,0.329375,0.329375,0.329375,0.329375,0.329375,0.329375,0.32875,0.32875,0.32875,0.329375,0.32875,0.329375,0.329375,0.329375,0.32875,0.32875,0.32875,0.32875,0.32875,0.32875,0.329375,0.329375,0.33,0,0.323125,0.34125,0.346875,0.354375,0.36125,0.365,0.37125,0.374375,0.375,0.375,0.3775,0.379375,0.38,0.379375,0.379375,0.38,0.380625,0.380625,0.38125,0.38,0.3775,0.37375,0.37375,0.37375,0.37125,0.369375,0.36875,0.365625,0.363125,0.359375,0.35625,0.353125,0,0.350625,0.346875,0.345,0.340625,0.33625,0.33375,0.330625,0.329375,0.32875,0.32875,0.32875,0.32875,0.32875,0.32875,0.329375,0.329375,0.329375,0.32875,0.32875,0.32875,0.32875,0.32875,0.329375,0.329375,0.32875,0.32875,0.329375,0.32875,0.328125,0.32875,0.32875,0.328125,0,0.886875,0.8725,0.849375,0.823125,0.78875,0.745625,0.695625,0.64375,0.59125,0.538125,0.48625,0.433125,0.376875,0.31875,0.261875,0.221875,0.2075,0.2225,0.25125,0.28,0.305625,0.324375,0.33,0.329375,0.328125,0.328125,0.32875,0.329375,0.32875,0.32875,0.329375,0.329375,0,0.32875,0.32875,0.32875,0.32875,0.32875,0.329375,0.32875,0.33,0.329375,0.329375,0.329375,0.329375,0.329375,0.32875,0.32875,0.32875,0.329375,0.329375,0.329375,0.33,0.329375,0.329375,0.329375,0.329375,0.329375,0.329375,0.329375,0.329375,0.329375,0.329375,0.33125,0.334375,0,0.335,0.336875,0.339375,0.3425,0.345625,0.34625,0.346875,0.349375,0.351875,0.3525,0.353125,0.355625,0.3575,0.356875,0.35875,0.361875,0.364375,0.365,0.368125,0.37375,0.38,0.385,0.38625,0.39,0.395625,0.4025,0.40875,0.415,0.420625,0.426875,0.431875,0.4375,0,0.44375,0.45,0.455625,0.46,0.463125,0.466875,0.46875,0.471875,0.4725,0.474375,0.4775,0.478125,0.47875,0.47625,0.473125,0.4725,0.470625,0.4675,0.465,0.461875,0.458125,0.455625,0.4525,0.446875,0.44125,0.438125,0.435,0.43,0.42625,0.4225,0.41625,0.410625,0,0.405,0.4,0.398125,0.394375,0.391875,0.388125,0.383125,0.38,0.37625,0.373125,0.37,0.3675,0.365,0.3625,0.35875,0.358125,0.355625,0.351875,0.35,0.345,0.34125,0.33875,0.335625,0.335,0.335,0.3325,0.33,0.329375,0.32875,0.32875,0.329375,0.329375,0,0.329375,0.329375,0.329375,0.329375,0.329375,0.32875,0.32875,0.328125,0.329375,0.329375,0.33,0.329375,0.329375,0.33,0.329375,0.329375,0.32875,0.32875,0.32875,0.32875,0.329375,0.33,0.33,0.33,0.33,0.329375,0.32875,0.32875,0.32875,0.329375,0.329375,0.329375,0,0.329375,0.329375,0.32875,0.329375,0.32875,0.32875,0.329375,0.329375,0.329375,0.33,0.33,0.329375,0.32875,0.32875,0.32875,0.328125,0.32875,0.329375,0.329375,0.329375,0.33,0.329375,0.329375,0.32875,0.329375,0.329375,0.329375,0.33,0.329375,0.329375,0.33,0.33,0,0.329375,0.329375,0.329375,0.329375,0.329375,0.329375,0.33,0.329375,0.329375,0.329375,0.329375,0.32875,0.32875,0.32875,0.329375,0.329375,0.329375,0.329375,0.33,0.33,0.329375,0.329375,0.329375,0.329375,0.329375,0.33,0.33,0.329375,0.329375,0.329375,0.329375,0.32875,0,0.32875,0.329375,0.329375,0.329375,0.329375,0.33,0.33,0.329375,0.329375,0.32875,0.32875,0.32875,0.32875,0.329375,0.329375,0.329375,0.33,0.33,0.33,0.329375,0.32875,0.32875,0.32875,0.329375,0.33,0.33,0.329375,0.32875,0.329375,0.329375,0.32875,0.32875,0,0.38,0.38125,0.38125,0.38125,0.381875,0.38,0.375625,0.37375,0.37375,0.373125,0.370625,0.37,0.3675,0.364375,0.36125,0.358125,0.355,0.35125,0.34875,0.34625,0.343125,0.3375,0.334375,0.33125,0.32875,0.32875,0.32875,0.32875,0.32875,0.32875,0.329375,0.33,0,0.28375,0.289375,0.30375,0.330625,0.371875,0.421875,0.474375,0.526875,0.579375,0.631875,0.684375,0.736875,0.788125,0.829375,0.85875,0.876875,0.88875,0.890625,0.880625,0.859375,0.835625,0.805625,0.76625,0.72,0.668125,0.615625,0.56375,0.510625,0.4575,0.403125,0.345,0.286875,0,0.236875,0.210625,0.2125,0.238125,0.266875,0.294375,0.316875,0.328125,0.329375,0.329375,0.329375,0.32875,0.329375,0.32875,0.329375,0.329375,0.329375,0.32875,0.32875,0.329375,0.32875,0.32875,0.32875,0.329375,0.32875,0.329375,0.329375,0.329375,0.329375,0.329375,0.32875,0.32875,0,0.32875,0.329375,0.329375,0.33,0.33,0.329375,0.329375,0.329375,0.329375,0.329375,0.32875,0.329375,0.329375,0.33,0.329375,0.33,0.333125,0.335,0.335,0.33875,0.34125,0.344375,0.346875,0.34625,0.3475,0.35125,0.3525,0.351875,0.35375,0.3575,0.3575,0.358125,0,0.359375,0.363125,0.364375,0.365625,0.370625,0.37625,0.381875,0.385625,0.388125,0.39375,0.4,0.40625,0.4125,0.41875,0.42375,0.429375,0.435,0.44125,0.446875,0.453125,0.45875,0.461875,0.465625,0.4675,0.47,0.4725,0.473125,0.476875,0.478125,0.478125,0.478125,0.474375,0,0.473125,0.4725,0.46875,0.46625,0.4625,0.459375,0.455625,0.45375,0.44875,0.443125,0.439375,0.43625,0.431875,0.426875,0.424375,0.419375,0.413125,0.4075,0.401875,0.39875,0.395625,0.3925,0.389375,0.384375,0.38125,0.378125,0.374375,0.37125,0.36875,0.366875,0.36375,0.360625,0,0.358125,0.356875,0.35375,0.35125,0.3475,0.343125,0.34,0.336875,0.335,0.335,0.33375,0.330625,0.32875,0.328125,0.328125,0.329375,0.329375,0.329375,0.329375,0.329375,0.329375,0.329375,0.32875,0.32875,0.32875,0.329375,0.329375,0.33,0.33,0.33,0.33,0.329375,0,0.329375,0.32875,0.32875,0.329375,0.329375,0.32875,0.32875,0.329375,0.329375,0.32875,0.329375,0.32875,0.329375,0.33,0.329375,0.329375,0.32875,0.329375,0.329375,0.329375,0.32875,0.32875,0.32875,0.329375,0.33,0.329375,0.329375,0.32875,0.32875,0.329375,0.329375,0.32875,0,0.32875,0.32875,0.329375,0.329375,0.329375,0.329375,0.329375,0.329375,0.329375,0.32875,0.329375,0.32875,0.32875,0.329375,0.329375,0.329375,0.32875,0.329375,0.329375,0.32875,0.32875,0.32875,0.329375,0.329375,0.329375,0.33,0.33,0.329375,0.329375,0.32875,0.32875,0.32875,0,0.329375,0.329375,0.329375,0.329375,0.32875,0.32875,0.32875,0.32875,0.328125,0.32875,0.329375,0.329375,0.329375,0.32875,0.329375,0.329375,0.32875,0.32875,0.32875,0.329375,0.32875,0.329375,0.329375,0.33,0.329375,0.329375,0.32875,0.32875,0.32875,0.32875,0.32875,0.329375,0,0.33,0.329375,0.329375,0.329375,0.328125,0.328125,0.32875,0.32875,0.32875,0.329375,0.329375,0.32875,0.329375,0.32875,0.32875,0.329375,0.32875,0.32875,0.32875,0.32875,0.329375,0.329375,0.32875,0.32875,0.32875,0.329375,0.329375,0.329375,0.329375,0.329375,0.329375,0.32875,0,0.359375,0.355625,0.3525,0.350625,0.3475,0.345,0.340625,0.33625,0.333125,0.33,0.329375,0.329375,0.32875,0.32875,0.32875,0.329375,0.33,0.33,0.329375,0.32875,0.329375,0.329375,0.329375,0.32875,0.329375,0.329375,0.329375,0.33,0.329375,0.328125,0.32875,0.32875,0,0.869375,0.88375,0.890625,0.886875,0.87125,0.848125,0.821875,0.7875,0.74375,0.694375,0.641875,0.589375,0.536875,0.484375,0.43125,0.374375,0.315625,0.26,0.22125,0.208125,0.22375,0.253125,0.28125,0.306875,0.324375,0.328125,0.328125,0.32875,0.32875,0.32875,0.32875,0.32875,0,0.329375,0.329375,0.329375,0.329375,0.32875,0.32875,0.328125,0.329375,0.329375,0.329375,0.329375,0.33,0.329375,0.329375,0.32875,0.328125,0.32875,0.329375,0.329375,0.329375,0.329375,0.33,0.329375,0.32875,0.329375,0.329375,0.328125,0.32875,0.329375,0.329375,0.32875,0.329375,0,0.32875,0.330625,0.334375,0.334375,0.336875,0.34,0.343125,0.34625,0.34625,0.345625,0.34875,0.351875,0.35125,0.3525,0.355625,0.3575,0.3575,0.35875,0.36125,0.363125,0.364375,0.368125,0.37375,0.379375,0.384375,0.386875,0.39125,0.3975,0.40375,0.409375,0.414375,0.420625,0,0.425625,0.43125,0.4375,0.443125,0.449375,0.45625,0.46125,0.463125,0.46625,0.468125,0.471875,0.4725,0.47375,0.4775,0.47875,0.47875,0.476875,0.47375,0.4725,0.47,0.466875,0.46375,0.46,0.458125,0.455625,0.4525,0.446875,0.44125,0.438125,0.434375,0.429375,0.42625,0,0.4225,0.416875,0.410625,0.405,0.4,0.3975,0.39375,0.390625,0.386875,0.381875,0.38,0.37625,0.373125,0.37,0.36875,0.365,0.361875,0.35875,0.3575,0.355625,0.351875,0.35,0.345625,0.34125,0.33875,0.335625,0.335625,0.335,0.3325,0.329375,0.329375,0.329375,0,0.329375,0.329375,0.33,0.329375,0.33,0.329375,0.329375,0.32875,0.329375,0.32875,0.32875,0.32875,0.329375,0.329375,0.329375,0.329375,0.32875,0.328125,0.328125,0.32875,0.32875,0.32875,0.32875,0.329375,0.329375,0.32875,0.32875,0.32875,0.32875,0.32875,0.32875,0.329375,0,0.329375,0.329375,0.329375,0.32875,0.32875,0.32875,0.32875,0.32875,0.329375,0.329375,0.329375,0.329375,0.329375,0.329375,0.329375,0.32875,0.32875,0.32875,0.32875,0.32875,0.329375,0.329375,0.329375,0.329375,0.32875,0.32875,0.32875,0.32875,0.32875,0.329375,0.329375,0.329375,0,0.329375,0.329375,0.32875,0.32875,0.32875,0.32875,0.329375,0.329375,0.33,0.329375,0.32875,0.32875,0.328125,0.328125,0.328125,0.328125,0.329375,0.329375,0.329375,0.329375,0.32875,0.32875,0.32875,0.328125,0.32875,0.32875,0.329375,0.32875,0.32875,0.32875,0.329375,0.32875,0,0.328125,0.328125,0.328125,0.32875,0.32875,0.32875,0.32875,0.329375,0.32875,0.329375,0.329375,0.32875,0.32875,0.32875,0.329375,0.32875,0.32875,0.329375,0.329375,0.32875,0.32875,0.32875,0.329375,0.329375,0.32875,0.329375,0.329375,0.33,0.329375,0.32875,0.32875,0.32875,0,0.380625,0.380625,0.380625,0.380625,0.38125,0.38125,0.38125,0.380625,0.37875,0.375625,0.374375,0.374375,0.373125,0.37,0.37,0.3675,0.364375,0.36125,0.3575,0.355,0.35125,0.349375,0.34625,0.34375,0.338125,0.334375,0.33125,0.32875,0.328125,0.32875,0.329375,0.329375,0,0.28,0.300625,0.29,0.284375,0.28875,0.30375,0.33,0.370625,0.420625,0.47375,0.526875,0.57875,0.63125,0.68375,0.73625,0.7875,0.829375,0.859375,0.8775,0.88875,0.890625,0.880625,0.860625,0.83625,0.80625,0.7675,0.72125,0.67,0.616875,0.565,0.511875,0.459375,0,0.404375,0.34625,0.288125,0.238125,0.21125,0.2125,0.236875,0.266875,0.294375,0.315625,0.3275,0.329375,0.32875,0.32875,0.329375,0.329375,0.329375,0.329375,0.329375,0.329375,0.329375,0.32875,0.32875,0.329375,0.329375,0.329375,0.33,0.329375,0.329375,0.329375,0.329375,0.329375,0,0.32875,0.32875,0.329375,0.329375,0.329375,0.32875,0.329375,0.33,0.32875,0.32875,0.329375,0.32875,0.32875,0.329375,0.329375,0.32875,0.329375,0.329375,0.33,0.333125,0.334375,0.335,0.33875,0.34125,0.345,0.346875,0.346875,0.346875,0.35,0.35125,0.351875,0.353125,0,0.356875,0.358125,0.35875,0.36,0.363125,0.363125,0.365,0.37,0.375625,0.38125,0.385625,0.38875,0.394375,0.4,0.40625,0.411875,0.4175,0.423125,0.429375,0.435,0.44125,0.446875,0.453125,0.45875,0.461875,0.465,0.468125,0.47,0.4725,0.473125,0.475625,0.4775,0,0.478125,0.478125,0.475,0.47375,0.471875,0.468125,0.465625,0.4625,0.46,0.45625,0.454375,0.449375,0.44375,0.43875,0.436875,0.431875,0.426875,0.424375,0.42,0.41375,0.4075,0.4025,0.398125,0.395625,0.3925,0.389375,0.38375,0.38125,0.37875,0.375,0.3725,0.369375,0,0.366875,0.36375,0.360625,0.3575,0.356875,0.35375,0.351875,0.348125,0.343125,0.34,0.336875,0.334375,0.334375,0.333125,0.330625,0.32875,0.32875,0.329375,0.329375,0.33,0.329375,0.32875,0.32875,0.32875,0.32875,0.32875,0.32875,0.329375,0.329375,0.329375,0.329375,0.32875,0,0.32875,0.329375,0.329375,0.32875,0.329375,0.329375,0.329375,0.329375,0.329375,0.329375,0.329375,0.329375,0.32875,0.32875,0.329375,0.32875,0.329375,0.329375,0.33,0.329375,0.32875,0.32875,0.329375,0.329375,0.32875,0.32875,0.32875,0.329375,0.329375,0.329375,0.329375,0.32875,0,0.32875,0.32875,0.32875,0.32875,0.329375,0.329375,0.329375,0.33,0.329375,0.329375,0.328125,0.328125,0.32875,0.32875,0.32875,0.329375,0.329375,0.32875,0.32875,0.32875,0.32875,0.32875,0.32875,0.329375,0.32875,0.329375,0.33,0.329375,0.329375,0.32875,0.32875,0.32875,0,0.32875,0.32875,0.329375,0.329375,0.33,0.329375,0.329375,0.329375,0.329375,0.329375,0.329375,0.329375,0.329375,0.329375,0.329375,0.329375,0.329375,0.32875,0.32875,0.32875,0.32875,0.329375,0.329375,0.32875,0.32875,0.32875,0.32875,0.32875,0.328125,0.32875,0.32875,0.32875,0,0.32875,0.33,0.33,0.329375,0.32875,0.32875,0.32875,0.32875,0.329375,0.32875,0.32875,0.329375,0.329375,0.329375,0.329375,0.32875,0.328125,0.32875,0.329375,0.32875,0.32875,0.329375,0.33,0.33,0.329375,0.329375,0.329375,0.32875,0.32875,0.329375,0.33,0.329375,0,0.368125,0.365625,0.3625,0.35875,0.356875,0.35375,0.35125,0.3475,0.345,0.340625,0.33625,0.334375,0.33,0.32875,0.32875,0.32875,0.32875,0.329375,0.32875,0.32875,0.32875,0.32875,0.328125,0.32875,0.329375,0.329375,0.32875,0.329375,0.329375,0.329375,0.329375,0.329375,0,0.76125,0.80875,0.845,0.869375,0.88375,0.890625,0.88625,0.870625,0.84875,0.8225,0.78875,0.745,0.69625,0.64375,0.59125,0.53875,0.485625,0.4325,0.37625,0.318125,0.26125,0.221875,0.20875,0.223125,0.251875,0.280625,0.305625,0.3225,0.328125,0.328125,0.32875,0.32875,0,0.329375,0.33,0.329375,0.329375,0.32875,0.32875,0.32875,0.32875,0.32875,0.32875,0.32875,0.32875,0.329375,0.32875,0.32875,0.32875,0.32875,0.32875,0.32875,0.329375,0.329375,0.329375,0.329375,0.329375,0.329375,0.32875,0.32875,0.32875,0.329375,0.32875,0.329375,0.33,0,0.329375,0.32875,0.32875,0.329375,0.331875,0.334375,0.334375,0.33625,0.34,0.3425,0.34625,0.34625,0.345625,0.348125,0.35125,0.351875,0.3525,0.355,0.3575,0.3575,0.35875,0.36125,0.363125,0.363125,0.366875,0.373125,0.37875,0.384375,0.386875,0.39125,0.396875,0.40375,0,0.409375,0.414375,0.42,0.42625,0.431875,0.438125,0.444375,0.450625,0.456875,0.460625,0.4625,0.465625,0.468125,0.471875,0.4725,0.474375,0.4775,0.478125,0.47875,0.476875,0.47375,0.473125,0.470625,0.466875,0.464375,0.46125,0.45875,0.455625,0.451875,0.446875,0.44125,0.4375,0,0.434375,0.429375,0.42625,0.4225,0.416875,0.411875,0.405625,0.4,0.3975,0.39375,0.390625,0.386875,0.3825,0.380625,0.376875,0.37375,0.370625,0.36875,0.364375,0.361875,0.35875,0.3575,0.35625,0.3525,0.350625,0.345625,0.34125,0.339375,0.335625,0.334375,0.334375,0.333125,0,0.329375,0.32875,0.329375,0.329375,0.329375,0.329375,0.329375,0.329375,0.32875,0.32875,0.32875,0.329375,0.329375,0.33,0.329375,0.329375,0.329375,0.32875,0.32875,0.32875,0.32875,0.32875,0.329375,0.33,0.329375,0.329375,0.329375,0.329375,0.329375,0.329375,0.32875,0.329375,0,0.329375,0.33,0.329375,0.329375,0.32875,0.328125,0.32875,0.32875,0.32875,0.32875,0.329375,0.329375,0.329375,0.329375,0.329375,0.32875,0.32875,0.32875,0.328125,0.32875,0.329375,0.329375,0.329375,0.329375,0.329375,0.32875,0.32875,0.32875,0.32875,0.329375,0.329375,0.329375,0,0.329375,0.329375,0.329375,0.329375,0.32875,0.32875,0.32875,0.329375,0.329375,0.329375,0.329375,0.329375,0.329375,0.329375,0.32875,0.32875,0.329375,0.329375,0.329375,0.329375,0.329375,0.329375,0.32875,0.329375,0.32875,0.328125,0.32875,0.32875,0.32875,0.32875,0.329375,0.32875,0,0.32875,0.32875,0.329375,0.329375,0.32875,0.329375,0.32875,0.329375,0.33,0.33,0.329375,0.32875,0.328125,0.32875,0.32875,0.329375,0.32875,0.32875,0.329375,0.329375,0.329375,0.32875,0.32875,0.329375,0.329375,0.32875,0.329375,0.329375,0.33,0.329375,0.329375,0.329375,0,0.375,0.375625,0.379375,0.38125,0.380625,0.380625,0.380625,0.380625,0.380625,0.380625,0.380625,0.37875,0.375625,0.375,0.375,0.373125,0.37,0.36875,0.3675,0.364375,0.36125,0.3575,0.355,0.351875,0.349375,0.346875,0.343125,0.338125,0.335,0.331875,0.329375,0.329375,0,0.329375,0.33,0.329375,0.329375,0.329375,0.329375,0.32875,0.32875,0.32875,0.32875,0.329375,0.329375,0.329375,0.329375,0.329375,0.329375,0.32875,0.329375,0.329375,0.32875,0.329375,0.329375,0.33,0.33,0.329375,0.32875,0.329375,0.329375,0.32875,0.329375,0.33,0.33,0,0.566875,0.51375,0.460625,0.405625,0.34875,0.290625,0.240625,0.213125,0.213125,0.2375,0.26625,0.29375,0.315625,0.328125,0.32875,0.329375,0.33,0.33,0.329375,0.33,0.329375,0.32875,0.329375,0.329375,0.32875,0.329375,0.329375,0.329375,0.33,0.329375,0.329375,0.329375,0,0.329375,0.32875,0.32875,0.32875,0.329375,0.33,0.329375,0.329375,0.33,0.33,0.329375,0.32875,0.32875,0.32875,0.329375,0.329375,0.329375,0.329375,0.329375,0.329375,0.33,0.33,0.3325,0.334375,0.335,0.339375,0.341875,0.345,0.346875,0.34625,0.3475,0.350625,0,0.351875,0.351875,0.353125,0.3575,0.358125,0.3575,0.36,0.363125,0.36375,0.365,0.37,0.37625,0.3825,0.38625,0.38875,0.394375,0.4,0.405625,0.411875,0.4175,0.423125,0.429375,0.435,0.44125,0.4475,0.45375,0.45875,0.46125,0.464375,0.466875,0.47,0.4725,0,0.47375,0.476875,0.47875,0.47875,0.47875,0.475,0.4725,0.471875,0.46875,0.46625,0.463125,0.46125,0.4575,0.455,0.45,0.444375,0.439375,0.4375,0.4325,0.4275,0.425,0.42,0.41375,0.408125,0.4025,0.398125,0.39625,0.393125,0.39,0.384375,0.38125,0.37875,0,0.375625,0.371875,0.36875,0.366875,0.363125,0.36,0.3575,0.356875,0.35375,0.351875,0.34875,0.34375,0.340625,0.3375,0.334375,0.334375,0.33375,0.33125,0.32875,0.329375,0.329375,0.329375,0.329375,0.329375,0.32875,0.329375,0.32875,0.329375,0.329375,0.329375,0.329375,0.329375,0,0.329375,0.329375,0.329375,0.329375,0.32875,0.32875,0.33,0.33,0.329375,0.329375,0.329375,0.329375,0.329375,0.329375,0.329375,0.329375,0.329375,0.329375,0.33,0.33,0.33,0.329375,0.329375,0.329375,0.32875,0.32875,0.32875,0.32875,0.33,0.33,0.329375,0.329375,0,0.32875,0.32875,0.32875,0.32875,0.33,0.33,0.329375,0.329375,0.33,0.329375,0.329375,0.32875,0.329375,0.329375,0.329375,0.329375,0.329375,0.33,0.33,0.329375,0.32875,0.32875,0.329375,0.329375,0.329375,0.329375,0.33,0.329375,0.329375,0.329375,0.329375,0.329375,0,0.32875,0.329375,0.329375,0.32875,0.329375,0.329375,0.32875,0.329375,0.329375,0.32875,0.32875,0.32875,0.329375,0.329375,0.32875,0.329375,0.33,0.329375,0.329375,0.32875,0.32875,0.329375,0.32875,0.329375,0.33,0.329375,0.329375,0.329375,0.329375,0.329375,0.329375,0.329375,0,0.32875,0.329375,0.33,0.329375,0.33,0.329375,0.32875,0.32875,0.32875,0.329375,0.32875,0.329375,0.329375,0.329375,0.329375,0.329375,0.329375,0.32875,0.32875,0.32875,0.329375,0.329375,0.329375,0.329375,0.329375,0.329375,0.32875,0.32875,0.32875,0.32875,0.329375,0.329375,0,0.375,0.371875,0.369375,0.36875,0.365,0.363125,0.359375,0.356875,0.35375,0.35125,0.3475,0.345625,0.340625,0.335625,0.333125,0.33,0.32875,0.329375,0.329375,0.329375,0.329375,0.32875,0.329375,0.32875,0.32875,0.329375,0.329375,0.32875,0.329375,0.329375,0.329375,0.329375,0,0.60125,0.654375,0.7075,0.76,0.8075,0.84375,0.86875,0.883125,0.890625,0.886875,0.871875,0.849375,0.82375,0.790625,0.748125,0.699375,0.646875,0.594375,0.54125,0.488125,0.434375,0.379375,0.32125,0.264375,0.224375,0.20875,0.2225,0.250625,0.28,0.304375,0.3225,0.32875,0,0.329375,0.329375,0.329375,0.329375,0.33,0.329375,0.329375,0.32875,0.32875,0.329375,0.329375,0.32875,0.33,0.329375,0.329375,0.329375,0.329375,0.329375,0.329375,0.32875,0.329375,0.329375,0.329375,0.330625,0.330625,0.329375,0.32875,0.32875,0.32875,0.329375,0.329375,0.329375,0,0.33,0.329375,0.329375,0.32875,0.32875,0.329375,0.33,0.330625,0.33375,0.334375,0.3375,0.340625,0.34375,0.346875,0.34625,0.34625,0.34875,0.35125,0.3525,0.3525,0.35625,0.358125,0.35875,0.35875,0.36125,0.36375,0.36375,0.366875,0.37375,0.379375,0.384375,0.3875,0,0.391875,0.396875,0.403125,0.408125,0.41375,0.42,0.42625,0.4325,0.438125,0.44375,0.450625,0.45625,0.460625,0.4625,0.465625,0.468125,0.471875,0.473125,0.475,0.47875,0.48,0.479375,0.4775,0.473125,0.4725,0.470625,0.4675,0.465,0.461875,0.45875,0.455,0.451875,0,0.44625,0.44125,0.438125,0.435,0.43,0.42625,0.4225,0.4175,0.41125,0.405625,0.400625,0.398125,0.39375,0.39125,0.3875,0.383125,0.380625,0.376875,0.374375,0.37,0.368125,0.364375,0.3625,0.35875,0.358125,0.35625,0.353125,0.35125,0.346875,0.3425,0.339375,0.335625,0,0.334375,0.334375,0.333125,0.330625,0.33,0.33,0.329375,0.329375,0.329375,0.329375,0.329375,0.329375,0.329375,0.329375,0.33,0.329375,0.329375,0.329375,0.32875,0.329375,0.329375,0.329375,0.329375,0.33,0.329375,0.329375,0.33,0.330625,0.33,0.32875,0.329375,0.329375,0,0.32875,0.329375,0.329375,0.329375,0.329375,0.329375,0.329375,0.329375,0.329375,0.32875,0.32875,0.32875,0.329375,0.33,0.330625,0.33,0.329375,0.329375,0.329375,0.32875,0.329375,0.329375,0.329375,0.33,0.33,0.33,0.329375,0.329375,0.329375,0.329375,0.32875,0.32875,0,0.33,0.33,0.329375,0.329375,0.329375,0.32875,0.32875,0.32875,0.329375,0.33,0.33,0.329375,0.33,0.329375,0.33,0.329375,0.32875,0.32875,0.329375,0.32875,0.32875,0.329375,0.329375,0.329375,0.329375,0.32875,0.32875,0.32875,0.329375,0.329375,0.329375,0.329375,0,0.329375,0.329375,0.329375,0.329375,0.32875,0.329375,0.329375,0.32875,0.32875,0.329375,0.329375,0.329375,0.329375,0.329375,0.32875,0.32875,0.32875,0.32875,0.329375,0.33,0.329375,0.329375,0.329375,0.329375,0.32875,0.329375,0.329375,0.329375,0.329375,0.329375,0.33,0.33,0,0.3675,0.373125,0.375,0.375,0.37625,0.379375,0.380625,0.380625,0.38,0.38,0.380625,0.380625,0.380625,0.380625,0.379375,0.37625,0.375,0.375,0.37375,0.370625,0.369375,0.3675,0.36375,0.36125,0.358125,0.355,0.3525,0.35,0.34625,0.343125,0.338125,0.334375,0,0.33125,0.329375,0.329375,0.329375,0.329375,0.329375,0.329375,0.329375,0.32875,0.32875,0.329375,0.329375,0.329375,0.329375,0.33,0.329375,0.329375,0.329375,0.32875,0.329375,0.329375,0.329375,0.329375,0.33,0.33,0.33,0.33,0.329375,0.329375,0.329375,0.329375,0.33,0,0.72625,0.675,0.621875,0.56875,0.51625,0.463125,0.40875,0.350625,0.29375,0.2425,0.213125,0.2125,0.235,0.264375,0.2925,0.314375,0.326875,0.32875,0.329375,0.329375,0.329375,0.329375,0.329375,0.32875,0.329375,0.329375,0.329375,0.33,0.329375,0.33,0.33,0.329375,0,0.329375,0.32875,0.329375,0.329375,0.329375,0.329375,0.329375,0.329375,0.329375,0.33,0.329375,0.329375,0.329375,0.329375,0.32875,0.329375,0.33,0.329375,0.329375,0.329375,0.329375,0.329375,0.32875,0.32875,0.329375,0.3325,0.335,0.33625,0.339375,0.34125,0.344375,0.34625,0,0.345625,0.345625,0.35,0.3525,0.3525,0.35375,0.356875,0.358125,0.35875,0.36,0.363125,0.36375,0.365,0.37,0.37625,0.3825,0.385625,0.38875,0.39375,0.399375,0.405,0.410625,0.416875,0.423125,0.429375,0.435,0.44125,0.446875,0.453125,0.458125,0.46125,0.464375,0,0.466875,0.47,0.473125,0.474375,0.476875,0.479375,0.47875,0.478125,0.475,0.473125,0.4725,0.46875,0.466875,0.46375,0.460625,0.456875,0.454375,0.45,0.444375,0.43875,0.436875,0.433125,0.428125,0.42625,0.42125,0.415,0.40875,0.4025,0.398125,0.395625,0.3925,0.39,0,0.385,0.381875,0.379375,0.375625,0.373125,0.369375,0.36625,0.363125,0.36,0.358125,0.3575,0.355,0.3525,0.34875,0.344375,0.340625,0.336875,0.334375,0.334375,0.335,0.331875,0.33,0.33,0.33,0.329375,0.33,0.32875,0.32875,0.32875,0.329375,0.329375,0.329375,0,0.329375,0.32875,0.329375,0.329375,0.329375,0.329375,0.32875,0.329375,0.33,0.33,0.33,0.33,0.33,0.329375,0.329375,0.329375,0.329375,0.329375,0.329375,0.33,0.330625,0.33,0.329375,0.32875,0.329375,0.329375,0.32875,0.329375,0.329375,0.329375,0.33,0.33,0,0.33,0.329375,0.329375,0.329375,0.329375,0.32875,0.329375,0.329375,0.329375,0.329375,0.329375,0.329375,0.329375,0.32875,0.32875,0.329375,0.329375,0.329375,0.329375,0.33,0.329375,0.329375,0.329375,0.329375,0.329375,0.329375,0.32875,0.33,0.330625,0.329375,0.33,0.33,0,0.329375,0.32875,0.32875,0.329375,0.329375,0.33,0.33,0.33,0.329375,0.33,0.33,0.32875,0.329375,0.329375,0.329375,0.33,0.33,0.33,0.33,0.33,0.32875,0.329375,0.329375,0.329375,0.329375,0.32875,0.329375,0.329375,0.329375,0.329375,0.329375,0.329375,0,0.329375,0.329375,0.329375,0.329375,0.330625,0.329375,0.329375,0.32875,0.32875,0.32875,0.329375,0.32875,0.329375,0.329375,0.33,0.329375,0.329375,0.329375,0.329375,0.329375,0.32875,0.32875,0.329375,0.33,0.329375,0.329375,0.329375,0.32875,0.32875,0.32875,0.329375,0.329375,0,0.378125,0.375625,0.375,0.374375,0.371875,0.369375,0.36875,0.36625,0.36375,0.360625,0.358125,0.355,0.3525,0.34875,0.345625,0.341875,0.33625,0.33375,0.33125,0.329375,0.329375,0.329375,0.329375,0.329375,0.32875,0.33,0.329375,0.329375,0.329375,0.329375,0.329375,0.329375,0,0.44125,0.49375,0.54625,0.599375,0.651875,0.705,0.758125,0.80625,0.8425,0.8675,0.881875,0.89,0.888125,0.87375,0.851875,0.825625,0.793125,0.750625,0.701875,0.649375,0.59625,0.54375,0.490625,0.4375,0.3825,0.325,0.2675,0.225625,0.209375,0.22125,0.24875,0.278125,0,0.303125,0.321875,0.32875,0.329375,0.33,0.329375,0.33,0.329375,0.32875,0.32875,0.329375,0.329375,0.329375,0.33,0.33,0.329375,0.33,0.329375,0.329375,0.32875,0.32875,0.329375,0.329375,0.329375,0.33,0.329375,0.329375,0.329375,0.329375,0.32875,0.32875,0.329375,0,0.329375,0.329375,0.329375,0.329375,0.329375,0.329375,0.329375,0.32875,0.32875,0.329375,0.33125,0.33375,0.335,0.336875,0.34,0.3425,0.345625,0.34625,0.34625,0.348125,0.35125,0.351875,0.3525,0.355625,0.35875,0.358125,0.35875,0.36125,0.363125,0.36375,0.368125,0.37375,0,0.38,0.384375,0.386875,0.390625,0.39625,0.4025,0.408125,0.414375,0.42,0.42625,0.4325,0.438125,0.44375,0.449375,0.455,0.46,0.461875,0.465625,0.46875,0.471875,0.473125,0.474375,0.4775,0.47875,0.47875,0.476875,0.473125,0.473125,0.47125,0.468125,0.465625,0.461875,0,0.459375,0.45625,0.4525,0.446875,0.441875,0.438125,0.435,0.43,0.4275,0.424375,0.4175,0.411875,0.405625,0.4,0.3975,0.394375,0.39125,0.388125,0.383125,0.38125,0.3775,0.374375,0.37,0.368125,0.36375,0.361875,0.35875,0.358125,0.356875,0.353125,0.350625,0.345625,0,0.34125,0.339375,0.335625,0.334375,0.335,0.33375,0.33,0.33,0.329375,0.329375,0.329375,0.32875,0.32875,0.329375,0.329375,0.32875,0.329375,0.33,0.33,0.329375,0.329375,0.32875,0.32875,0.32875,0.329375,0.33,0.33,0.33,0.329375,0.329375,0.33,0.33,0,0.329375,0.32875,0.32875,0.33,0.33,0.33,0.33,0.33,0.329375,0.32875,0.32875,0.329375,0.32875,0.329375,0.33,0.329375,0.329375,0.329375,0.32875,0.329375,0.33,0.32875,0.329375,0.329375,0.33,0.33,0.33,0.329375,0.329375,0.329375,0.32875,0.32875,0,0.329375,0.33,0.329375,0.33,0.329375,0.329375,0.32875,0.32875,0.32875,0.32875,0.329375,0.329375,0.33,0.33,0.33,0.329375,0.329375,0.32875,0.329375,0.329375,0.329375,0.329375,0.33,0.33,0.329375,0.32875,0.329375,0.329375,0.32875,0.32875,0.32875,0.32875,0,0.33,0.33,0.33,0.33,0.329375,0.32875,0.32875,0.329375,0.329375,0.329375,0.329375,0.329375,0.329375,0.32875,0.329375,0.32875,0.32875,0.32875,0.329375,0.329375,0.329375,0.329375,0.33,0.329375,0.329375,0.329375,0.329375,0.329375,0.329375,0.33,0.329375,0.329375,0,0.35,0.358125,0.36375,0.3675,0.371875,0.375,0.375,0.376875,0.38,0.380625,0.380625,0.38,0.380625,0.380625,0.380625,0.380625,0.380625,0.38,0.37625,0.375,0.374375,0.374375,0.370625,0.36875,0.3675,0.365,0.363125,0.359375,0.35625,0.353125,0.35,0.34625,0,0.343125,0.33875,0.335,0.3325,0.33,0.33,0.33,0.329375,0.32875,0.32875,0.33,0.329375,0.329375,0.329375,0.32875,0.33,0.33,0.329375,0.329375,0.32875,0.328125,0.329375,0.33,0.329375,0.32875,0.329375,0.329375,0.329375,0.329375,0.329375,0.329375,0.32875,0,0.839375,0.81125,0.773125,0.7275,0.676875,0.62375,0.57125,0.518125,0.465625,0.41125,0.354375,0.296875,0.245,0.21375,0.21125,0.23375,0.2625,0.290625,0.313125,0.326875,0.329375,0.329375,0.329375,0.329375,0.329375,0.329375,0.32875,0.329375,0.329375,0.329375,0.329375,0.329375,0,0.33,0.329375,0.329375,0.329375,0.329375,0.32875,0.329375,0.32875,0.329375,0.329375,0.33,0.33,0.329375,0.33,0.329375,0.32875,0.329375,0.32875,0.329375,0.329375,0.329375,0.32875,0.32875,0.329375,0.32875,0.32875,0.32875,0.33,0.333125,0.335,0.335625,0.33875,0,0.34125,0.34375,0.345625,0.34625,0.34625,0.35,0.351875,0.3525,0.354375,0.356875,0.3575,0.358125,0.359375,0.3625,0.36375,0.365625,0.370625,0.375625,0.38125,0.385625,0.388125,0.393125,0.39875,0.405,0.41125,0.4175,0.423125,0.429375,0.435,0.440625,0.44625,0.451875,0,0.458125,0.46125,0.46375,0.466875,0.470625,0.47375,0.47375,0.47625,0.47875,0.479375,0.47875,0.474375,0.4725,0.471875,0.469375,0.466875,0.464375,0.46125,0.456875,0.454375,0.45,0.444375,0.439375,0.4375,0.433125,0.42875,0.42625,0.42125,0.415,0.40875,0.403125,0.39875,0,0.39625,0.3925,0.390625,0.385,0.381875,0.379375,0.375625,0.3725,0.369375,0.36625,0.363125,0.360625,0.35875,0.358125,0.355625,0.3525,0.349375,0.34375,0.340625,0.336875,0.335,0.335,0.334375,0.33125,0.33,0.329375,0.329375,0.329375,0.329375,0.329375,0.329375,0.32875,0,0.329375,0.329375,0.329375,0.33,0.33,0.33,0.329375,0.329375,0.32875,0.329375,0.33,0.329375,0.329375,0.329375,0.33,0.329375,0.329375,0.32875,0.32875,0.329375,0.329375,0.33,0.329375,0.33,0.33,0.329375,0.32875,0.329375,0.32875,0.329375,0.329375,0.329375,0,0.329375,0.329375,0.32875,0.32875,0.328125,0.32875,0.32875,0.329375,0.32875,0.32875,0.329375,0.329375,0.329375,0.329375,0.32875,0.32875,0.32875,0.32875,0.33,0.329375,0.329375,0.32875,0.32875,0.329375,0.329375,0.329375,0.32875,0.329375,0.32875,0.32875,0.329375,0.329375,0,0.329375,0.329375,0.32875,0.32875,0.329375,0.32875,0.329375,0.329375,0.329375,0.32875,0.32875,0.32875,0.32875,0.32875,0.32875,0.32875,0.329375,0.32875,0.329375,0.329375,0.329375,0.32875,0.32875,0.32875,0.32875,0.329375,0.329375,0.33,0.33,0.329375,0.329375,0.32875,0,0.329375,0.329375,0.329375,0.329375,0.33,0.329375,0.329375,0.329375,0.329375,0.32875,0.328125,0.32875,0.32875,0.329375,0.329375,0.33,0.33,0.329375,0.32875,0.329375,0.329375,0.32875,0.32875,0.33,0.33,0.329375,0.33,0.33,0.329375,0.329375,0.32875,0.32875,0,0.38125,0.38125,0.380625,0.378125,0.375,0.374375,0.374375,0.371875,0.369375,0.36875,0.36625,0.36375,0.360625,0.3575,0.35375,0.351875,0.348125,0.345625,0.341875,0.33625,0.33375,0.330625,0.329375,0.329375,0.329375,0.329375,0.32875,0.328125,0.32875,0.329375,0.32875,0.329375,0,0.31125,0.343125,0.3875,0.43875,0.49125,0.54375,0.596875,0.649375,0.7025,0.755625,0.80375,0.84,0.86625,0.88125,0.89,0.8875,0.874375,0.8525,0.826875,0.794375,0.751875,0.703125,0.650625,0.598125,0.545625,0.493125,0.439375,0.385,0.326875,0.269375,0.22625,0.20875,0,0.219375,0.248125,0.2775,0.3025,0.3225,0.329375,0.329375,0.329375,0.32875,0.32875,0.32875,0.32875,0.328125,0.32875,0.33,0.329375,0.32875,0.32875,0.329375,0.329375,0.329375,0.32875,0.32875,0.32875,0.32875,0.329375,0.329375,0.329375,0.33,0.329375,0.329375,0.329375,0,0.329375,0.329375,0.33,0.329375,0.329375,0.329375,0.33,0.329375,0.329375,0.32875,0.32875,0.32875,0.329375,0.33125,0.334375,0.335625,0.33625,0.339375,0.341875,0.345,0.345625,0.346875,0.348125,0.351875,0.351875,0.3525,0.355,0.3575,0.358125,0.358125,0.36125,0.363125,0,0.36375,0.366875,0.373125,0.379375,0.38375,0.386875,0.39,0.395,0.401875,0.408125,0.41375,0.420625,0.42625,0.431875,0.436875,0.443125,0.44875,0.455,0.459375,0.4625,0.46625,0.46875,0.4725,0.473125,0.474375,0.476875,0.47875,0.478125,0.476875,0.473125,0.473125,0.470625,0,0.468125,0.465625,0.461875,0.45875,0.455,0.4525,0.4475,0.441875,0.439375,0.43625,0.43,0.4275,0.42375,0.4175,0.411875,0.405,0.4,0.3975,0.394375,0.391875,0.388125,0.38375,0.380625,0.376875,0.374375,0.37,0.368125,0.364375,0.361875,0.359375,0.358125,0.356875,0,0.35375,0.35125,0.34625,0.34125,0.33875,0.335625,0.335,0.335,0.33375,0.330625,0.32875,0.329375,0.329375,0.32875,0.32875,0.32875,0.329375,0.329375,0.329375,0.33,0.329375,0.329375,0.32875,0.32875,0.32875,0.32875,0.329375,0.33,0.33,0.33,0.329375,0.32875,0,0.32875,0.32875,0.32875,0.329375,0.329375,0.329375,0.33,0.33,0.33,0.329375,0.329375,0.329375,0.329375,0.329375,0.329375,0.329375,0.329375,0.329375,0.329375,0.329375,0.329375,0.32875,0.32875,0.32875,0.329375,0.329375,0.33,0.329375,0.32875,0.32875,0.32875,0.32875,0,0.328125,0.32875,0.329375,0.329375,0.329375,0.329375,0.33,0.329375,0.32875,0.32875,0.32875,0.32875,0.329375,0.32875,0.329375,0.329375,0.329375,0.329375,0.329375,0.329375,0.32875,0.32875,0.329375,0.329375,0.329375,0.329375,0.32875,0.329375,0.329375,0.32875,0.32875,0.32875,0,0.329375,0.329375,0.329375,0.329375,0.329375,0.32875,0.32875,0.329375,0.329375,0.329375,0.329375,0.329375,0.329375,0.33,0.329375,0.329375,0.329375,0.32875,0.32875,0.32875,0.329375,0.329375,0.33,0.330625,0.329375,0.32875,0.32875,0.329375,0.329375,0.329375,0.329375,0.329375,0,0.3525,0.35,0.34625,0.343125,0.33875,0.335625,0.333125,0.33,0.329375,0.329375,0.32875,0.329375,0.32875,0.329375,0.329375,0.329375,0.33,0.329375,0.329375,0.329375,0.329375,0.32875,0.32875,0.32875,0.329375,0.329375,0.33,0.329375,0.329375,0.329375,0.329375,0.32875,0,0.890625,0.883125,0.865,0.84125,0.813125,0.775,0.729375,0.678125,0.625625,0.5725,0.52,0.468125,0.414375,0.3575,0.29875,0.24625,0.215,0.210625,0.2325,0.261875,0.29,0.3125,0.326875,0.33,0.33,0.33,0.329375,0.329375,0.329375,0.329375,0.33,0.33,0,0.33,0.33,0.33,0.329375,0.32875,0.329375,0.329375,0.32875,0.329375,0.329375,0.329375,0.329375,0.329375,0.32875,0.329375,0.329375,0.329375,0.329375,0.329375,0.32875,0.329375,0.329375,0.329375,0.329375,0.329375,0.32875,0.32875,0.329375,0.329375,0.329375,0.33,0.333125,0,0.335,0.335625,0.338125,0.340625,0.34375,0.34625,0.346875,0.3475,0.35,0.3525,0.3525,0.35375,0.356875,0.3575,0.358125,0.359375,0.3625,0.36375,0.365,0.37,0.375625,0.381875,0.385625,0.388125,0.3925,0.39875,0.405625,0.41125,0.4175,0.423125,0.429375,0.435,0,0.440625,0.44625,0.451875,0.458125,0.461875,0.464375,0.466875,0.47,0.473125,0.47375,0.476875,0.47875,0.478125,0.47875,0.475625,0.473125,0.473125,0.47,0.466875,0.46375,0.46125,0.456875,0.454375,0.45,0.444375,0.43875,0.4375,0.43375,0.428125,0.42625,0.421875,0.415625,0,0.40875,0.4025,0.39875,0.396875,0.39375,0.39125,0.38625,0.3825,0.38,0.375,0.3725,0.37,0.3675,0.365,0.361875,0.359375,0.35875,0.355625,0.353125,0.349375,0.34375,0.34,0.338125,0.335625,0.335625,0.335,0.331875,0.33,0.329375,0.32875,0.329375,0.329375,0,0.329375,0.33,0.33,0.329375,0.329375,0.33,0.33,0.33,0.329375,0.329375,0.329375,0.329375,0.33,0.33,0.33,0.329375,0.329375,0.32875,0.32875,0.32875,0.329375,0.33,0.33,0.329375,0.33,0.33,0.33,0.33,0.329375,0.329375,0.329375,0.32875,0,0.329375,0.329375,0.33,0.33,0.329375,0.329375,0.32875,0.32875,0.32875,0.32875,0.33,0.33,0.33,0.329375,0.329375,0.329375,0.329375,0.32875,0.32875,0.329375,0.329375,0.33,0.33,0.329375,0.329375,0.32875,0.329375,0.329375,0.33,0.33,0.33,0.33,0,0.33,0.33,0.329375,0.329375,0.32875,0.32875,0.329375,0.329375,0.329375,0.329375,0.329375,0.33,0.33,0.329375,0.32875,0.32875,0.329375,0.329375,0.329375,0.33,0.329375,0.329375,0.32875,0.32875,0.329375,0.329375,0.329375,0.329375,0.33,0.33,0.33,0.33,0,0.329375,0.329375,0.32875,0.32875,0.32875,0.32875,0.329375,0.329375,0.329375,0.329375,0.329375,0.32875,0.32875,0.32875,0.329375,0.33,0.329375,0.329375,0.329375,0.329375,0.329375,0.329375,0.329375,0.32875,0.32875,0.329375,0.329375,0.33,0.329375,0.329375,0.32875,0.32875,0,0.38,0.38,0.38125,0.38125,0.38125,0.380625,0.378125,0.375,0.374375,0.37375,0.371875,0.369375,0.36875,0.36625,0.364375,0.360625,0.3575,0.35375,0.35125,0.3475,0.345,0.34125,0.33625,0.33375,0.330625,0.329375,0.32875,0.328125,0.32875,0.32875,0.329375,0.33,0,0.2875,0.285,0.293125,0.310625,0.34125,0.385,0.436875,0.49,0.5425,0.595,0.648125,0.7,0.7525,0.801875,0.839375,0.865,0.88125,0.890625,0.88875,0.875625,0.85375,0.82875,0.795625,0.75375,0.705,0.653125,0.6,0.548125,0.495625,0.4425,0.386875,0.32875,0,0.27125,0.2275,0.20875,0.219375,0.246875,0.275625,0.30125,0.321875,0.329375,0.329375,0.329375,0.329375,0.32875,0.32875,0.329375,0.329375,0.329375,0.329375,0.33,0.33,0.329375,0.329375,0.32875,0.329375,0.33,0.329375,0.329375,0.33,0.33,0.329375,0.33,0.329375,0,0.329375,0.33,0.329375,0.329375,0.33,0.33,0.33,0.33,0.329375,0.32875,0.32875,0.32875,0.32875,0.32875,0.329375,0.329375,0.33125,0.334375,0.335,0.33625,0.34,0.341875,0.345625,0.34625,0.34625,0.348125,0.351875,0.3525,0.3525,0.354375,0.356875,0.3575,0,0.358125,0.360625,0.36375,0.364375,0.3675,0.3725,0.37875,0.384375,0.38625,0.39,0.395625,0.401875,0.408125,0.41375,0.42,0.42625,0.431875,0.436875,0.443125,0.44875,0.455,0.46,0.4625,0.46625,0.46875,0.4725,0.473125,0.474375,0.4775,0.478125,0.478125,0.4775,0,0.474375,0.47375,0.471875,0.468125,0.465625,0.4625,0.45875,0.455625,0.453125,0.448125,0.4425,0.43875,0.43625,0.430625,0.4275,0.424375,0.418125,0.411875,0.40625,0.400625,0.3975,0.395,0.391875,0.38875,0.383125,0.380625,0.3775,0.374375,0.370625,0.368125,0.365,0.363125,0,0.36,0.358125,0.356875,0.35375,0.35125,0.34625,0.341875,0.339375,0.33625,0.335625,0.335625,0.33375,0.330625,0.329375,0.32875,0.32875,0.32875,0.329375,0.329375,0.329375,0.330625,0.33,0.32875,0.32875,0.329375,0.329375,0.329375,0.329375,0.33,0.33,0.33,0.33,0,0.329375,0.32875,0.32875,0.32875,0.32875,0.329375,0.329375,0.329375,0.329375,0.329375,0.329375,0.32875,0.32875,0.329375,0.32875,0.32875,0.329375,0.33,0.329375,0.329375,0.33,0.329375,0.32875,0.32875,0.329375,0.33,0.329375,0.33,0.33,0.33,0.329375,0.329375,0,0.329375,0.32875,0.329375,0.329375,0.330625,0.33,0.329375,0.329375,0.329375,0.329375,0.32875,0.32875,0.32875,0.329375,0.33,0.329375,0.329375,0.33,0.329375,0.329375,0.329375,0.329375,0.329375,0.329375,0.33,0.33,0.33,0.33,0.33,0.329375,0.33,0.33,0,0.329375,0.329375,0.329375,0.329375,0.329375,0.33,0.329375,0.329375,0.329375,0.329375,0.329375,0.329375,0.329375,0.329375,0.33,0.33,0.33,0.329375,0.329375,0.329375,0.32875,0.329375,0.33,0.33,0.329375,0.33,0.33,0.329375,0.329375,0.329375,0.329375,0.329375,0,0.329375,0.33,0.329375,0.329375,0.33,0.329375,0.33,0.329375,0.32875,0.32875,0.32875,0.329375,0.33,0.33,0.329375,0.33,0.329375,0.32875,0.328125,0.329375,0.329375,0.33,0.33,0.329375,0.329375,0.329375,0.329375,0.32875,0.329375,0.329375,0.329375,0.33,0,0.363125,0.35875,0.35625,0.3525,0.349375,0.345625,0.344375,0.34,0.335625,0.3325,0.329375,0.32875,0.32875,0.32875,0.329375,0.33,0.329375,0.329375,0.32875,0.329375,0.33,0.32875,0.32875,0.32875,0.32875,0.329375,0.329375,0.329375,0.33,0.33,0.329375,0.329375,0,0.85375,0.87375,0.88625,0.890625,0.88375,0.865625,0.8425,0.81375,0.77625,0.730625,0.68,0.628125,0.575625,0.523125,0.470625,0.4175,0.359375,0.30125,0.248125,0.215,0.21,0.23125,0.260625,0.289375,0.3125,0.3275,0.33,0.329375,0.329375,0.32875,0.329375,0.32875,0,0.329375,0.33,0.33,0.33,0.33,0.329375,0.329375,0.329375,0.32875,0.329375,0.33,0.33,0.329375,0.33,0.329375,0.32875,0.329375,0.33,0.329375,0.329375,0.33,0.33,0.33,0.33,0.329375,0.32875,0.32875,0.32875,0.329375,0.329375,0.329375,0.33,0,0.33,0.330625,0.3325,0.335,0.335625,0.338125,0.340625,0.343125,0.34625,0.346875,0.3475,0.35125,0.3525,0.3525,0.353125,0.356875,0.358125,0.358125,0.359375,0.363125,0.36375,0.365625,0.37,0.375625,0.380625,0.385,0.3875,0.393125,0.39875,0.405,0.410625,0.41625,0,0.423125,0.429375,0.435,0.44,0.445,0.451875,0.45875,0.461875,0.464375,0.4675,0.47,0.473125,0.473125,0.475625,0.478125,0.478125,0.478125,0.47625,0.47375,0.473125,0.47,0.4675,0.46375,0.46125,0.456875,0.454375,0.450625,0.445625,0.440625,0.438125,0.43375,0.42875,0,0.42625,0.42125,0.415,0.40875,0.40375,0.399375,0.396875,0.39375,0.39125,0.386875,0.381875,0.379375,0.375625,0.3725,0.369375,0.36625,0.36375,0.361875,0.35875,0.3575,0.355,0.3525,0.349375,0.34375,0.340625,0.338125,0.335625,0.335,0.335,0.3325,0.33,0.329375,0,0.32875,0.329375,0.329375,0.329375,0.33,0.33,0.33,0.329375,0.329375,0.329375,0.32875,0.32875,0.329375,0.32875,0.329375,0.329375,0.329375,0.329375,0.329375,0.329375,0.329375,0.329375,0.33,0.33,0.33,0.33,0.33,0.329375,0.33,0.329375,0.32875,0.32875,0,0.329375,0.329375,0.329375,0.33,0.33,0.329375,0.33,0.329375,0.32875,0.329375,0.33,0.33,0.329375,0.329375,0.33,0.329375,0.33,0.33,0.329375,0.329375,0.329375,0.33,0.329375,0.33,0.33,0.33,0.329375,0.329375,0.329375,0.329375,0.329375,0.33,0,0.329375,0.329375,0.329375,0.329375,0.329375,0.329375,0.32875,0.329375,0.33,0.329375,0.33,0.33,0.33,0.329375,0.329375,0.329375,0.32875,0.329375,0.329375,0.329375,0.33,0.330625,0.33,0.329375,0.329375,0.32875,0.32875,0.32875,0.329375,0.329375,0.33,0.33,0,0.329375,0.329375,0.329375,0.32875,0.32875,0.329375,0.329375,0.329375,0.329375,0.329375,0.329375,0.329375,0.32875,0.32875,0.32875,0.32875,0.32875,0.329375,0.329375,0.33,0.33,0.329375,0.329375,0.329375,0.32875,0.329375,0.329375,0.33,0.33,0.329375,0.329375,0.329375,0,0.379375,0.380625,0.380625,0.38125,0.38125,0.38125,0.381875,0.380625,0.38,0.378125,0.374375,0.374375,0.374375,0.3725,0.37,0.37,0.3675,0.364375,0.360625,0.358125,0.354375,0.35125,0.348125,0.34625,0.341875,0.336875,0.334375,0.330625,0.329375,0.329375,0.32875,0.32875,0,0.445,0.39,0.33125,0.27375,0.22875,0.209375,0.218125,0.245625,0.274375,0.300625,0.32125,0.32875,0.329375,0.329375,0.32875,0.329375,0.329375,0.33,0.33,0.33,0.329375,0.329375,0.32875,0.329375,0.329375,0.329375,0.329375,0.329375,0.33,0.33,0.33,0.329375,0,0.329375,0.329375,0.329375,0.32875,0.329375,0.32875,0.329375,0.33,0.33,0.33,0.329375,0.329375,0.329375,0.329375,0.33,0.33,0.33,0.33,0.329375,0.330625,0.333125,0.334375,0.33625,0.339375,0.341875,0.345,0.346875,0.34625,0.348125,0.351875,0.3525,0.3525,0,0.354375,0.3575,0.358125,0.35875,0.36125,0.364375,0.364375,0.366875,0.3725,0.378125,0.383125,0.38625,0.390625,0.395625,0.401875,0.408125,0.41375,0.419375,0.425,0.43125,0.436875,0.4425,0.449375,0.455,0.460625,0.4625,0.465625,0.468125,0.471875,0.473125,0.47375,0.478125,0,0.47875,0.47875,0.478125,0.474375,0.47375,0.4725,0.46875,0.46625,0.461875,0.45875,0.45625,0.45375,0.448125,0.4425,0.43875,0.43625,0.43125,0.426875,0.42375,0.418125,0.4125,0.40625,0.40125,0.398125,0.395,0.3925,0.38875,0.383125,0.380625,0.3775,0.374375,0.370625,0,0.36875,0.365625,0.363125,0.359375,0.358125,0.356875,0.35375,0.351875,0.346875,0.3425,0.34,0.33625,0.335,0.335625,0.33375,0.33,0.32875,0.329375,0.329375,0.329375,0.33,0.33,0.33,0.329375,0.329375,0.329375,0.32875,0.32875,0.329375,0.329375,0.329375,0.33,0,0.330625,0.33,0.329375,0.329375,0.32875,0.32875,0.329375,0.329375,0.329375,0.329375,0.33,0.33,0.329375,0.329375,0.329375,0.32875,0.32875,0.32875,0.33,0.33,0.33,0.329375,0.329375,0.329375,0.32875,0.329375,0.329375,0.329375,0.329375,0.329375,0.33,0.33,0,0.329375,0.329375,0.32875,0.32875,0.32875,0.32875,0.33,0.33,0.33,0.33,0.329375,0.32875,0.32875,0.329375,0.329375,0.32875,0.329375,0.329375,0.33,0.33,0.33,0.329375,0.32875,0.329375,0.32875,0.32875,0.329375,0.33,0.33,0.329375,0.329375,0.33,0,0.329375,0.32875,0.329375,0.33,0.329375,0.329375,0.33,0.329375,0.32875,0.329375,0.329375,0.329375,0.32875,0.329375,0.32875,0.329375,0.329375,0.329375,0.329375,0.329375,0.329375,0.329375,0.32875,0.329375,0.32875,0.329375,0.329375,0.33,0.329375,0.329375,0.329375,0.33,0,0.329375,0.32875,0.329375,0.329375,0.329375,0.32875,0.329375,0.33,0.329375,0.32875,0.329375,0.329375,0.329375,0.329375,0.329375,0.329375,0.329375,0.329375,0.32875,0.328125,0.329375,0.329375,0.33,0.329375,0.329375,0.33,0.329375,0.329375,0.329375,0.329375,0.329375,0.329375,0,0.369375,0.36875,0.365625,0.3625,0.35875,0.35625,0.3525,0.35,0.346875,0.345,0.339375,0.335625,0.333125,0.33,0.329375,0.32875,0.32875,0.329375,0.329375,0.33,0.33,0.33,0.329375,0.32875,0.32875,0.329375,0.329375,0.329375,0.329375,0.329375,0.33,0.329375,0,0.72375,0.775625,0.82,0.853125,0.87375,0.886875,0.89125,0.884375,0.86625,0.8425,0.814375,0.778125,0.733125,0.6825,0.63,0.5775,0.525,0.471875,0.418125,0.36125,0.3025,0.24875,0.215625,0.21,0.230625,0.259375,0.288125,0.311875,0.32625,0.32875,0.329375,0.329375,0,0.329375,0.329375,0.329375,0.329375,0.33,0.33,0.329375,0.329375,0.329375,0.32875,0.32875,0.329375,0.33,0.33,0.33,0.33,0.329375,0.32875,0.329375,0.32875,0.32875,0.32875,0.329375,0.329375,0.33,0.33,0.329375,0.32875,0.32875,0.329375,0.329375,0.32875,0,0.329375,0.329375,0.33,0.33,0.33,0.3325,0.334375,0.334375,0.3375,0.340625,0.34375,0.34625,0.346875,0.346875,0.349375,0.351875,0.351875,0.353125,0.356875,0.358125,0.358125,0.359375,0.3625,0.364375,0.365,0.369375,0.375,0.380625,0.385,0.3875,0.393125,0.399375,0,0.405,0.410625,0.41625,0.4225,0.428125,0.43375,0.44,0.445625,0.451875,0.458125,0.46125,0.464375,0.466875,0.47,0.473125,0.473125,0.47625,0.47875,0.478125,0.47875,0.47625,0.473125,0.4725,0.469375,0.466875,0.46375,0.46125,0.4575,0.455,0.45125,0.44625,0.440625,0,0.4375,0.43375,0.428125,0.425625,0.42125,0.415625,0.409375,0.40375,0.4,0.3975,0.39375,0.390625,0.385625,0.381875,0.38,0.37625,0.3725,0.369375,0.366875,0.364375,0.36125,0.35875,0.3575,0.355625,0.351875,0.34875,0.344375,0.340625,0.3375,0.335,0.335625,0.335,0,0.331875,0.329375,0.32875,0.32875,0.32875,0.329375,0.329375,0.329375,0.329375,0.329375,0.329375,0.329375,0.32875,0.329375,0.33,0.33,0.33,0.329375,0.329375,0.329375,0.329375,0.329375,0.329375,0.32875,0.329375,0.329375,0.329375,0.33,0.329375,0.329375,0.32875,0.32875,0,0.329375,0.329375,0.329375,0.329375,0.33,0.33,0.33,0.329375,0.329375,0.329375,0.329375,0.329375,0.329375,0.33,0.32875,0.32875,0.329375,0.329375,0.32875,0.32875,0.32875,0.329375,0.329375,0.329375,0.329375,0.329375,0.329375,0.32875,0.329375,0.329375,0.328125,0.329375,0,0.329375,0.329375,0.329375,0.329375,0.329375,0.329375,0.329375,0.329375,0.329375,0.32875,0.329375,0.33,0.33,0.329375,0.32875,0.329375,0.329375,0.329375,0.329375,0.329375,0.329375,0.329375,0.329375,0.329375,0.329375,0.329375,0.32875,0.328125,0.32875,0.329375,0.329375,0.329375,0,0.329375,0.329375,0.329375,0.329375,0.329375,0.32875,0.32875,0.329375,0.329375,0.329375,0.329375,0.33,0.329375,0.32875,0.329375,0.329375,0.32875,0.32875,0.329375,0.33,0.33,0.33,0.33,0.329375,0.329375,0.32875,0.32875,0.329375,0.329375,0.329375,0.329375,0.329375,0,0.375,0.375,0.37625,0.38,0.380625,0.38,0.380625,0.38125,0.380625,0.380625,0.380625,0.380625,0.378125,0.375,0.375,0.375,0.3725,0.37,0.369375,0.366875,0.363125,0.36,0.356875,0.354375,0.351875,0.348125,0.34625,0.343125,0.3375,0.334375,0.330625,0.32875,0,0.32875,0.32875,0.329375,0.329375,0.329375,0.33,0.33,0.329375,0.32875,0.32875,0.32875,0.329375,0.32875,0.32875,0.33,0.329375,0.329375,0.329375,0.329375,0.32875,0.328125,0.32875,0.32875,0.32875,0.329375,0.329375,0.329375,0.329375,0.329375,0.329375,0.32875,0.329375,0,0.605625,0.553125,0.499375,0.446875,0.39125,0.333125,0.27625,0.23,0.21,0.218125,0.244375,0.274375,0.3,0.32,0.32875,0.329375,0.329375,0.329375,0.329375,0.329375,0.329375,0.33,0.329375,0.329375,0.32875,0.32875,0.32875,0.32875,0.329375,0.329375,0.33,0.33,0,0.329375,0.329375,0.329375,0.329375,0.32875,0.32875,0.32875,0.329375,0.329375,0.33,0.33,0.329375,0.329375,0.329375,0.32875,0.32875,0.32875,0.329375,0.329375,0.329375,0.33,0.329375,0.33,0.333125,0.334375,0.335625,0.34,0.341875,0.345625,0.346875,0.346875,0.348125,0,0.35125,0.351875,0.3525,0.355,0.3575,0.358125,0.35875,0.360625,0.36375,0.36375,0.36625,0.371875,0.378125,0.38375,0.386875,0.39,0.39625,0.401875,0.4075,0.41375,0.419375,0.425,0.430625,0.43625,0.4425,0.44875,0.455,0.46,0.461875,0.465,0.4675,0.47125,0