0.349375,0.351875,0.351875,0.3525,0.35625,0.358125,0.35875,0.35875,0.3625,0.364375,0.364375,0.368125,0.373125,0.37875,0.384375,0.386875,0.391875,0.398125,0.40375,0.409375,0.415,0.420625,0.426875,0.4325,0.438125,0.444375,0.450625,0.456875,0.46125,0.463125,0.46625,0.46875,0,0.4725,0.473125,0.474375,0.478125,0.47875,0.47875,0.476875,0.47375,0.473125,0.470625,0.4675,0.465,0.461875,0.459375,0.455625,0.453125,0.4475,0.441875,0.43875,0.435,0.429375,0.42625,0.423125,0.4175,0.41125,0.405625,0.400625,0.398125,0.394375,0.39125,0.386875,0.381875,0,0.38,0.376875,0.37375,0.37,0.368125,0.364375,0.361875,0.35875,0.358125,0.35625,0.3525,0.350625,0.34625,0.341875,0.339375,0.335625,0.335625,0.335,0.333125,0.329375,0.32875,0.329375,0.329375,0.329375,0.329375,0.329375,0.329375,0.329375,0.32875,0.32875,0.329375,0.32875,0,0.33,0.33,0.33,0.329375,0.32875,0.32875,0.32875,0.32875,0.32875,0.329375,0.329375,0.33,0.330625,0.33,0.33,0.329375,0.329375,0.329375,0.329375,0.329375,0.33,0.330625,0.33,0.33,0.33,0.329375,0.329375,0.329375,0.329375,0.329375,0.329375,0.33,0,0.329375,0.329375,0.329375,0.329375,0.329375,0.32875,0.32875,0.33,0.33,0.33,0.329375,0.329375,0.33,0.329375,0.329375,0.32875,0.32875,0.33,0.329375,0.33,0.33,0.329375,0.329375,0.32875,0.329375,0.33,0.329375,0.329375,0.329375,0.330625,0.330625,0.329375,0,0.33,0.329375,0.329375,0.329375,0.329375,0.329375,0.329375,0.33,0.33,0.33,0.33,0.329375,0.32875,0.32875,0.329375,0.329375,0.33,0.33,0.329375,0.33,0.33,0.329375,0.329375,0.329375,0.329375,0.329375,0.329375,0.33,0.33,0.33,0.32875,0.32875,0,0.33,0.329375,0.329375,0.329375,0.329375,0.329375,0.33,0.33,0.33,0.329375,0.329375,0.329375,0.33,0.329375,0.329375,0.329375,0.33,0.329375,0.329375,0.32875,0.329375,0.32875,0.32875,0.329375,0.33,0.329375,0.329375,0.329375,0.329375,0.33,0.32875,0.329375,0,0.329375,0.329375,0.33,0.33,0.329375,0.329375,0.329375,0.33,0.33125,0.336875,0.340625,0.34375,0.349375,0.3575,0.36375,0.3675,0.3725,0.374375,0.375,0.375625,0.37875,0.380625,0.38125,0.380625,0.380625,0.380625,0.380625,0.380625,0.38125,0.380625,0.3775,0.375,0,0.375,0.374375,0.37125,0.369375,0.368125,0.365,0.363125,0.359375,0.356875,0.353125,0.35125,0.3475,0.345,0.340625,0.335625,0.333125,0.33,0.329375,0.329375,0.329375,0.329375,0.33,0.33,0.33,0.33,0.329375,0.329375,0.329375,0.33,0.329375,0.329375,0.33,0,0.33,0.33,0.329375,0.329375,0.329375,0.329375,0.329375,0.329375,0.329375,0.33,0.33,0.33,0.33,0.33,0.33,0.329375,0.329375,0.329375,0.33,0.33,0.325625,0.314375,0.304375,0.294375,0.285,0.286875,0.29875,0.320625,0.356875,0.404375,0.456875,0.50875,0,0.56125,0.61375,0.666875,0.719375,0.771875,0.8175,0.85125,0.8725,0.88625,0.89125,0.885,0.868125,0.844375,0.816875,0.78125,0.736875,0.686875,0.635,0.5825,0.529375,0.47625,0.4225,0.365625,0.308125,0.253125,0.218125,0.209375,0.22875,0.258125,0.28625,0.31,0.32625,0,0.329375,0.329375,0.329375,0.329375,0.33,0.329375,0.33,0.330625,0.33,0.329375,0.33,0.33,0.329375,0.329375,0.329375,0.33,0.33,0.329375,0.329375,0.329375,0.329375,0.32875,0.32875,0.329375,0.329375,0.33,0.33,0.33,0.329375,0.329375,0.329375,0.329375,0,0.329375,0.329375,0.33,0.329375,0.329375,0.33,0.33,0.330625,0.334375,0.335,0.33625,0.34,0.341875,0.345625,0.346875,0.346875,0.348125,0.35125,0.3525,0.3525,0.354375,0.3575,0.358125,0.35875,0.36125,0.36375,0.36375,0.36625,0.37125,0.376875,0.3825,0.38625,0,0.39,0.395625,0.401875,0.408125,0.413125,0.419375,0.425,0.430625,0.43625,0.4425,0.448125,0.454375,0.459375,0.4625,0.465625,0.468125,0.47125,0.4725,0.47375,0.4775,0.47875,0.479375,0.478125,0.474375,0.473125,0.471875,0.4675,0.46625,0.4625,0.46,0.45625,0.454375,0,0.449375,0.44375,0.439375,0.43625,0.43125,0.4275,0.424375,0.419375,0.413125,0.4075,0.4025,0.39875,0.395625,0.393125,0.389375,0.38375,0.38125,0.378125,0.375,0.371875,0.37,0.36625,0.363125,0.36,0.358125,0.356875,0.354375,0.351875,0.3475,0.343125,0.340625,0.336875,0,0.335,0.335,0.33375,0.330625,0.329375,0.329375,0.33,0.329375,0.329375,0.33,0.33,0.33,0.32875,0.32875,0.32875,0.329375,0.329375,0.329375,0.329375,0.33,0.33,0.33,0.329375,0.329375,0.32875,0.329375,0.329375,0.33,0.330625,0.330625,0.33,0.33,0,0.33,0.33,0.329375,0.329375,0.329375,0.329375,0.329375,0.329375,0.33,0.329375,0.329375,0.32875,0.329375,0.329375,0.329375,0.329375,0.329375,0.329375,0.33,0.33,0.33,0.329375,0.329375,0.32875,0.329375,0.33,0.33,0.33,0.329375,0.32875,0.32875,0.329375,0,0.329375,0.329375,0.329375,0.329375,0.329375,0.33,0.33,0.329375,0.329375,0.329375,0.32875,0.32875,0.329375,0.33,0.33,0.329375,0.329375,0.33,0.33,0.329375,0.329375,0.329375,0.329375,0.33,0.33,0.330625,0.33,0.33,0.329375,0.329375,0.329375,0.329375,0,0.32875,0.329375,0.33,0.33,0.33,0.329375,0.329375,0.33,0.33,0.32875,0.32875,0.329375,0.329375,0.329375,0.329375,0.329375,0.329375,0.329375,0.329375,0.33,0.329375,0.329375,0.329375,0.33,0.329375,0.329375,0.329375,0.329375,0.32875,0.329375,0.329375,0.329375,0,0.329375,0.329375,0.329375,0.329375,0.329375,0.329375,0.329375,0.329375,0.329375,0.33,0.33,0.33,0.33,0.33,0.33,0.329375,0.32875,0.329375,0.329375,0.329375,0.329375,0.33,0.33,0.329375,0.330625,0.335,0.34,0.3425,0.3475,0.355625,0.3625,0.365625,0,0.370625,0.374375,0.375,0.375,0.376875,0.380625,0.380625,0.38125,0.38125,0.38125,0.38125,0.381875,0.381875,0.380625,0.3775,0.374375,0.374375,0.375,0.371875,0.37,0.369375,0.36625,0.36375,0.36,0.3575,0.354375,0.351875,0.348125,0.34625,0.3425,0.336875,0.334375,0,0.33125,0.329375,0.329375,0.329375,0.329375,0.329375,0.33,0.33,0.33,0.33,0.33,0.329375,0.329375,0.329375,0.33,0.33,0.33,0.33,0.33,0.33,0.329375,0.33,0.329375,0.329375,0.33,0.33,0.33,0.33,0.33,0.329375,0.33,0.329375,0,0.33,0.329375,0.33,0.33,0.328125,0.31875,0.308125,0.298125,0.286875,0.284375,0.293125,0.31125,0.343125,0.388125,0.439375,0.491875,0.545,0.596875,0.649375,0.7025,0.755,0.80375,0.840625,0.866875,0.8825,0.89125,0.88875,0.875,0.853125,0.826875,0.79375,0.7525,0,0.704375,0.651875,0.6,0.546875,0.49375,0.440625,0.385,0.326875,0.269375,0.225625,0.208125,0.22,0.248125,0.276875,0.3025,0.321875,0.329375,0.329375,0.329375,0.329375,0.329375,0.33,0.33,0.329375,0.33,0.33,0.329375,0.329375,0.32875,0.32875,0.329375,0.33,0,0.33,0.33,0.33,0.33,0.329375,0.329375,0.329375,0.329375,0.329375,0.329375,0.329375,0.329375,0.33,0.33,0.329375,0.32875,0.32875,0.329375,0.329375,0.329375,0.329375,0.33,0.33,0.330625,0.333125,0.335,0.335,0.338125,0.34125,0.34375,0.34625,0.34625,0,0.3475,0.350625,0.3525,0.3525,0.353125,0.3575,0.35875,0.358125,0.36,0.36375,0.364375,0.365625,0.37,0.37625,0.381875,0.385625,0.388125,0.39375,0.4,0.40625,0.411875,0.4175,0.423125,0.42875,0.434375,0.440625,0.44625,0.451875,0.458125,0.4625,0.464375,0.466875,0,0.47,0.4725,0.4725,0.475625,0.47875,0.479375,0.479375,0.47625,0.47375,0.4725,0.469375,0.466875,0.46375,0.46125,0.4575,0.455625,0.45125,0.445625,0.440625,0.4375,0.43375,0.428125,0.425625,0.42125,0.415625,0.409375,0.40375,0.399375,0.3975,0.39375,0.390625,0.38625,0,0.381875,0.38,0.375625,0.373125,0.37,0.3675,0.365,0.361875,0.35875,0.358125,0.355,0.3525,0.349375,0.34375,0.34125,0.33875,0.33625,0.335625,0.334375,0.331875,0.33,0.33,0.33,0.329375,0.329375,0.33,0.33,0.33,0.329375,0.33,0.329375,0.329375,0,0.33,0.33,0.33,0.33,0.33,0.329375,0.33,0.33,0.329375,0.329375,0.33,0.33,0.33,0.33,0.33,0.33,0.33,0.329375,0.329375,0.329375,0.33,0.33,0.329375,0.33,0.33,0.33,0.33,0.329375,0.329375,0.32875,0.329375,0.329375,0,0.329375,0.329375,0.329375,0.329375,0.329375,0.329375,0.329375,0.329375,0.329375,0.329375,0.33,0.329375,0.329375,0.33,0.33,0.329375,0.329375,0.32875,0.329375,0.329375,0.329375,0.329375,0.33,0.33,0.329375,0.32875,0.32875,0.32875,0.329375,0.329375,0.329375,0.329375,0,0.33,0.329375,0.329375,0.329375,0.329375,0.32875,0.32875,0.329375,0.329375,0.329375,0.33,0.33,0.329375,0.329375,0.329375,0.329375,0.329375,0.329375,0.33,0.33,0.329375,0.329375,0.329375,0.32875,0.329375,0.329375,0.329375,0.329375,0.329375,0.33,0.330625,0.33,0,0.33,0.329375,0.329375,0.32875,0.329375,0.329375,0.329375,0.33,0.33,0.33,0.33,0.33,0.329375,0.329375,0.329375,0.329375,0.329375,0.33,0.33,0.33,0.33,0.329375,0.33,0.33,0.329375,0.329375,0.329375,0.33,0.33,0.33,0.329375,0.33,0,0.33,0.329375,0.329375,0.329375,0.33,0.33,0.33,0.329375,0.329375,0.333125,0.338125,0.340625,0.345,0.351875,0.36,0.364375,0.36875,0.373125,0.375,0.375,0.37625,0.379375,0.380625,0.38125,0.38125,0.381875,0.381875,0.381875,0.38125,0.38125,0.37875,0.375625,0,0.375,0.375,0.37375,0.370625,0.37,0.36875,0.364375,0.361875,0.358125,0.355625,0.3525,0.34875,0.34625,0.34375,0.338125,0.335625,0.3325,0.33,0.329375,0.32875,0.32875,0.329375,0.33,0.33,0.33,0.329375,0.329375,0.329375,0.329375,0.329375,0.329375,0.329375,0,0.329375,0.33,0.33,0.33,0.33,0.329375,0.329375,0.32875,0.329375,0.33,0.330625,0.330625,0.330625,0.330625,0.33,0.329375,0.329375,0.329375,0.33,0.33,0.329375,0.3225,0.31125,0.3025,0.29125,0.284375,0.289375,0.304375,0.33125,0.3725,0.421875,0.474375,0,0.5275,0.58,0.631875,0.684375,0.7375,0.78875,0.829375,0.859375,0.8775,0.88875,0.890625,0.880625,0.860625,0.83625,0.80625,0.7675,0.720625,0.66875,0.616875,0.564375,0.511875,0.459375,0.404375,0.34625,0.288125,0.238125,0.21125,0.213125,0.2375,0.2675,0.295,0.316875,0,0.328125,0.329375,0.32875,0.32875,0.32875,0.329375,0.33,0.329375,0.33,0.33,0.33,0.33,0.329375,0.329375,0.329375,0.33,0.33,0.33,0.330625,0.33,0.33,0.329375,0.32875,0.329375,0.33,0.33,0.33,0.33,0.33,0.329375,0.33,0.33,0,0.329375,0.329375,0.329375,0.33,0.33,0.33,0.33,0.33,0.331875,0.334375,0.334375,0.336875,0.34,0.343125,0.345625,0.34625,0.346875,0.349375,0.351875,0.3525,0.353125,0.355625,0.3575,0.358125,0.35875,0.361875,0.364375,0.365,0.36875,0.374375,0.38,0.384375,0,0.386875,0.39125,0.396875,0.403125,0.41,0.415625,0.42125,0.426875,0.4325,0.438125,0.444375,0.450625,0.45625,0.460625,0.463125,0.466875,0.469375,0.4725,0.473125,0.475,0.4775,0.478125,0.47875,0.476875,0.47375,0.473125,0.470625,0.468125,0.465,0.46125,0.458125,0.455625,0,0.4525,0.446875,0.441875,0.43875,0.435,0.43,0.426875,0.423125,0.4175,0.41125,0.405625,0.4,0.39875,0.395,0.391875,0.3875,0.3825,0.380625,0.376875,0.374375,0.370625,0.368125,0.365625,0.363125,0.359375,0.35875,0.35625,0.353125,0.35125,0.34625,0.341875,0.339375,0,0.33625,0.33625,0.335625,0.333125,0.33,0.329375,0.33,0.329375,0.329375,0.329375,0.33,0.33,0.329375,0.329375,0.329375,0.329375,0.329375,0.329375,0.329375,0.329375,0.329375,0.33,0.33,0.329375,0.329375,0.33,0.329375,0.329375,0.329375,0.33,0.33,0.33,0,0.329375,0.329375,0.33,0.329375,0.329375,0.329375,0.33,0.329375,0.329375,0.33,0.329375,0.329375,0.32875,0.329375,0.329375,0.32875,0.329375,0.33,0.33,0.33,0.329375,0.329375,0.33,0.329375,0.329375,0.33,0.33,0.33,0.33,0.33,0.33,0.329375,0,0.329375,0.329375,0.329375,0.329375,0.329375,0.329375,0.33,0.33,0.329375,0.32875,0.32875,0.329375,0.329375,0.329375,0.329375,0.33,0.33,0.33,0.33,0.329375,0.32875,0.32875,0.329375,0.329375,0.329375,0.33,0.33,0.33,0.329375,0.329375,0.33,0.329375,0,0.329375,0.32875,0.329375,0.329375,0.33,0.33,0.33,0.329375,0.329375,0.329375,0.329375,0.32875,0.329375,0.329375,0.329375,0.329375,0.33,0.329375,0.329375,0.329375,0.32875,0.329375,0.33,0.33,0.330625,0.330625,0.33,0.329375,0.329375,0.32875,0.329375,0.329375,0,0.329375,0.33,0.33,0.33,0.33,0.33,0.33,0.329375,0.329375,0.329375,0.33,0.33,0.33,0.33,0.33,0.33,0.329375,0.329375,0.329375,0.329375,0.33,0.330625,0.329375,0.329375,0.33,0.3325,0.3375,0.34,0.343125,0.349375,0.358125,0.36375,0,0.3675,0.3725,0.375,0.375,0.375,0.37875,0.380625,0.380625,0.380625,0.380625,0.38125,0.38125,0.381875,0.38125,0.38,0.37625,0.375,0.375,0.374375,0.37125,0.37,0.36875,0.365,0.3625,0.35875,0.35625,0.3525,0.350625,0.3475,0.345,0.34,0.33625,0,0.333125,0.330625,0.33,0.329375,0.32875,0.32875,0.329375,0.33,0.33,0.33,0.329375,0.329375,0.33,0.329375,0.329375,0.329375,0.33,0.33,0.33,0.33,0.33,0.33,0.33,0.329375,0.33,0.329375,0.329375,0.329375,0.329375,0.33,0.33,0.329375,0,0.329375,0.32875,0.329375,0.329375,0.33,0.325625,0.314375,0.305625,0.294375,0.285625,0.2875,0.29875,0.320625,0.3575,0.405625,0.4575,0.510625,0.563125,0.61625,0.668125,0.720625,0.773125,0.818125,0.85125,0.873125,0.88625,0.89125,0.885625,0.868125,0.845,0.816875,0.780625,0,0.73625,0.68625,0.63375,0.58125,0.52875,0.475625,0.4225,0.365625,0.306875,0.251875,0.2175,0.209375,0.229375,0.258125,0.286875,0.310625,0.32625,0.329375,0.329375,0.329375,0.329375,0.329375,0.329375,0.33,0.33,0.33,0.329375,0.329375,0.329375,0.33,0.329375,0.329375,0,0.329375,0.329375,0.329375,0.33,0.33,0.33,0.329375,0.33,0.329375,0.329375,0.329375,0.329375,0.330625,0.330625,0.330625,0.33,0.33,0.33,0.329375,0.33,0.33,0.329375,0.33,0.330625,0.33125,0.334375,0.335,0.33625,0.339375,0.341875,0.34625,0.34625,0,0.34625,0.34875,0.351875,0.353125,0.3525,0.355,0.3575,0.358125,0.358125,0.36125,0.36375,0.364375,0.3675,0.371875,0.3775,0.3825,0.38625,0.39,0.39625,0.40125,0.4075,0.41375,0.419375,0.425,0.43125,0.43625,0.4425,0.44875,0.454375,0.46,0.4625,0.465625,0,0.468125,0.471875,0.473125,0.474375,0.4775,0.47875,0.478125,0.4775,0.474375,0.473125,0.4725,0.46875,0.46625,0.4625,0.46,0.455625,0.453125,0.44875,0.443125,0.439375,0.436875,0.431875,0.4275,0.424375,0.41875,0.413125,0.406875,0.401875,0.39875,0.395625,0.3925,0.389375,0,0.38375,0.38125,0.378125,0.375,0.371875,0.36875,0.36625,0.36375,0.360625,0.35875,0.3575,0.35375,0.35125,0.3475,0.3425,0.340625,0.336875,0.335,0.335,0.334375,0.330625,0.32875,0.329375,0.33,0.329375,0.329375,0.33,0.33,0.33,0.329375,0.329375,0.329375,0,0.329375,0.329375,0.32875,0.329375,0.33,0.33,0.33,0.33,0.33,0.329375,0.329375,0.329375,0.329375,0.329375,0.33,0.33,0.330625,0.33,0.329375,0.329375,0.329375,0.329375,0.329375,0.329375,0.329375,0.33,0.33,0.33,0.33,0.329375,0.329375,0.329375,0,0.329375,0.329375,0.33,0.33,0.33,0.33,0.329375,0.329375,0.32875,0.32875,0.329375,0.329375,0.329375,0.329375,0.329375,0.329375,0.33,0.335,0.351875,0.375,0.398125,0.421875,0.44625,0.473125,0.499375,0.52625,0.55125,0.579375,0.606875,0.633125,0.66125,0.68875,0,0.715625,0.741875,0.768125,0.795625,0.82,0.843125,0.86625,0.89,0.91125,0.93,0.948125,0.96625,0.983125,0.998125,1.010625,1.021875,1.031875,1.04,1.049375,1.053125,1.05625,1.059375,1.059375,1.055625,1.05,1.04,1.025625,1.010625,0.9925,0.9725,0.948125,0.9225,0,0.895,0.86625,0.83625,0.8025,0.766875,0.731875,0.695625,0.661875,0.626875,0.59125,0.55625,0.52125,0.4875,0.45625,0.42625,0.398125,0.3725,0.3475,0.326875,0.3075,0.291875,0.276875,0.26625,0.259375,0.25625,0.255,0.255,0.255,0.255,0.255,0.2525,0.249375,0,0.24875,0.245625,0.243125,0.240625,0.2375,0.235,0.231875,0.22875,0.223125,0.2175,0.214375,0.210625,0.204375,0.199375,0.193125,0.1875,0.181875,0.17625,0.170625,0.164375,0.158125,0.151875,0.14625,0.14,0.134375,0.129375,0.123125,0.116875,0.11125,0.105625,0.099375,0.093125,0,0.0875,0.08125,0.07625,0.070625,0.065625,0.06375,0.05875,0.053125,0.04875,0.045625,0.0425,0.039375,0.03625,0.034375,0.03125,0.03125,0.02875,0.02625,0.025625,0.025,0.025,0.025,0.025,0.02875,0.031875,0.035,0.0375,0.04125,0.04625,0.051875,0.0575,0.064375,0,0.07375,0.0825,0.091875,0.100625,0.110625,0.12125,0.129375,0.139375,0.15125,0.1625,0.1725,0.181875,0.191875,0.20375,0.215625,0.22625,0.234375,0.245,0.255,0.26375,0.273125,0.281875,0.290625,0.296875,0.303125,0.30875,0.315,0.3175,0.320625,0.323125,0.32625,0.329375,0,0.33,0.329375,0.33,0.329375,0.32875,0.329375,0.329375,0.329375,0.329375,0.329375,0.329375,0.33,0.33,0.33,0.33,0.329375,0.329375,0.32875,0.329375,0.329375,0.33,0.33,0.33,0.33,0.33,0.33,0.33,0.32875,0.329375,0.329375,0.329375,0.33,0,0.33,0.329375,0.329375,0.329375,0.32875,0.329375,0.33,0.329375,0.33,0.33,0.33,0.33,0.33,0.329375,0.329375,0.329375,0.32875,0.329375,0.329375,0.33,0.33,0.33,0.33,0.329375,0.329375,0.33,0.329375,0.329375,0.329375,0.329375,0.329375,0.329375,0,0.329375,0.329375,0.329375,0.32875,0.32875,0.32875,0.329375,0.329375,0.329375,0.329375,0.33,0.33,0.33,0.329375,0.33,0.329375,0.33,0.33,0.33,0.33,0.33,0.33,0.33,0.33,0.329375,0.329375,0.33,0.33,0.33,0.329375,0.329375,0.329375,0,0.329375,0.32875,0.32875,0.329375,0.33,0.33,0.33,0.33,0.33,0.329375,0.329375,0.329375,0.329375,0.329375,0.329375,0.329375,0.329375,0.33,0.33,0.33,0.329375,0.329375,0.32875,0.32875,0.329375,0.329375,0.329375,0.329375,0.33,0.33,0.329375,0.32875,0,0.32875,0.329375,0.329375,0.329375,0.329375,0.329375,0.329375,0.329375,0.329375,0.329375,0.329375,0.329375,0.329375,0.329375,0.33,0.33,0.329375,0.329375,0.329375,0.33,0.329375,0.329375,0.33,0.33,0.33,0.33,0.33,0.329375,0.329375,0.329375,0.32875,0.329375,0,0.33,0.329375,0.33,0.33,0.33,0.33,0.329375,0.32875,0.329375,0.33,0.33,0.329375,0.33,0.330625,0.33,0.33,0.329375,0.329375,0.329375,0.33,0.33,0.33,0.33,0.330625,0.33,0.329375,0.33,0.329375,0.329375,0.32875,0.33,0.330625,0,0.33,0.33,0.33,0.329375,0.329375,0.33,0.329375,0.329375,0.32875,0.329375,0.329375,0.329375,0.33,0.329375,0.329375,0.329375,0.33,0.329375,0.329375,0.330625,0.33,0.33,0.330625,0.33,0.329375,0.329375,0.329375,0.32875,0.329375,0.33,0.33,0.33,0,0.33,0.329375,0.329375,0.329375,0.32875,0.32875,0.329375,0.33,0.33,0.33,0.329375,0.329375,0.32875,0.32875,0.329375,0.329375,0.329375,0.33,0.33,0.329375,0.329375,0.33,0.329375,0.33,0.329375,0.329375,0.33,0.33,0.33,0.329375,0.33,0.33,0,0.329375,0.32875,0.32875,0.329375,0.329375,0.33,0.33,0.33,0.331875,0.336875,0.34,0.343125,0.34875,0.3575,0.363125,0.36625,0.3725,0.375,0.375625,0.375625,0.378125,0.380625,0.380625,0.38125,0.38125,0.38125,0.38125,0.38125,0.38125,0.380625,0.376875,0.374375,0,0.375,0.37375,0.370625,0.37,0.36875,0.36625,0.36375,0.359375,0.356875,0.353125,0.35125,0.346875,0.345,0.340625,0.33625,0.33375,0.330625,0.33,0.329375,0.329375,0.329375,0.32875,0.32875,0.329375,0.329375,0.329375,0.329375,0.329375,0.329375,0.329375,0.329375,0.32875,0,0.32875,0.329375,0.329375,0.329375,0.33,0.329375,0.329375,0.329375,0.329375,0.32875,0.329375,0.33,0.33,0.329375,0.329375,0.33,0.329375,0.329375,0.329375,0.32875,0.325625,0.315,0.305625,0.295,0.285625,0.286875,0.2975,0.31875,0.355,0.401875,0.454375,0.506875,0,0.56,0.6125,0.665,0.7175,0.77,0.815625,0.849375,0.871875,0.885625,0.89125,0.885625,0.869375,0.84625,0.81875,0.783125,0.73875,0.689375,0.63625,0.58375,0.53125,0.47875,0.425625,0.36875,0.309375,0.255,0.21875,0.209375,0.226875,0.25625,0.285,0.30875,0.32625,0,0.33,0.329375,0.329375,0.32875,0.329375,0.329375,0.329375,0.33,0.33,0.33,0.329375,0.33,0.329375,0.329375,0.33,0.33,0.329375,0.329375,0.329375,0.329375,0.329375,0.32875,0.329375,0.329375,0.329375,0.329375,0.329375,0.33,0.330625,0.330625,0.329375,0.329375,0,0.329375,0.329375,0.329375,0.32875,0.32875,0.329375,0.33,0.330625,0.33375,0.334375,0.33625,0.339375,0.34125,0.345,0.34625,0.34625,0.348125,0.350625,0.351875,0.351875,0.354375,0.3575,0.358125,0.3575,0.36,0.36375,0.36375,0.366875,0.371875,0.3775,0.3825,0.38625,0,0.389375,0.395,0.40125,0.4075,0.413125,0.41875,0.425,0.430625,0.435625,0.441875,0.4475,0.45375,0.46,0.4625,0.465625,0.468125,0.471875,0.473125,0.47375,0.476875,0.47875,0.479375,0.47875,0.475,0.473125,0.471875,0.46875,0.466875,0.463125,0.460625,0.456875,0.454375,0,0.449375,0.44375,0.44,0.438125,0.4325,0.428125,0.425,0.419375,0.413125,0.4075,0.401875,0.39875,0.39625,0.393125,0.39,0.384375,0.38125,0.37875,0.375,0.37125,0.369375,0.36625,0.36375,0.36,0.358125,0.3575,0.354375,0.351875,0.348125,0.3425,0.340625,0.336875,0,0.335625,0.335,0.335,0.331875,0.33,0.32875,0.32875,0.329375,0.329375,0.329375,0.329375,0.329375,0.329375,0.329375,0.329375,0.329375,0.329375,0.32875,0.32875,0.329375,0.329375,0.33,0.329375,0.329375,0.33,0.33,0.329375,0.329375,0.33,0.329375,0.330625,0.330625,0,0.33,0.330625,0.329375,0.329375,0.329375,0.32875,0.329375,0.329375,0.33,0.330625,0.330625,0.33,0.33,0.33,0.329375,0.329375,0.329375,0.33,0.33,0.329375,0.329375,0.33,0.33,0.329375,0.32875,0.329375,0.329375,0.33,0.33,0.33,0.33,0.33,0,0.33,0.329375,0.329375,0.32875,0.32875,0.329375,0.33,0.33,0.329375,0.33,0.32875,0.329375,0.329375,0.32875,0.329375,0.329375,0.329375,0.33,0.33,0.329375,0.329375,0.329375,0.329375,0.329375,0.329375,0.33,0.33,0.33,0.329375,0.329375,0.329375,0.329375,0,0.329375,0.329375,0.329375,0.329375,0.33,0.330625,0.330625,0.33,0.329375,0.329375,0.33,0.329375,0.329375,0.329375,0.329375,0.33,0.33,0.33,0.33,0.329375,0.329375,0.329375,0.329375,0.329375,0.33,0.33,0.33,0.33,0.33,0.329375,0.32875,0.32875,0,0.329375,0.329375,0.33,0.33,0.33,0.33,0.329375,0.329375,0.33,0.329375,0.329375,0.329375,0.33,0.33,0.329375,0.33,0.329375,0.329375,0.329375,0.329375,0.329375,0.33,0.33,0.33,0.330625,0.335,0.339375,0.341875,0.346875,0.35375,0.361875,0.365,0,0.37,0.374375,0.375625,0.375625,0.3775,0.38,0.38,0.38,0.380625,0.380625,0.38125,0.381875,0.381875,0.38125,0.3775,0.375,0.375,0.374375,0.371875,0.37,0.37,0.366875,0.364375,0.360625,0.3575,0.354375,0.351875,0.348125,0.345625,0.3425,0.3375,0.334375,0,0.331875,0.33,0.329375,0.329375,0.329375,0.32875,0.32875,0.329375,0.33,0.33,0.33,0.330625,0.33,0.33,0.329375,0.329375,0.329375,0.329375,0.33,0.33,0.33,0.33,0.329375,0.329375,0.329375,0.329375,0.329375,0.329375,0.33,0.33,0.33,0.33,0,0.33,0.329375,0.329375,0.329375,0.3275,0.31875,0.30875,0.29875,0.28875,0.285625,0.293125,0.310625,0.341875,0.385625,0.43625,0.48875,0.5425,0.595,0.648125,0.700625,0.75375,0.8025,0.84,0.86625,0.88125,0.890625,0.888125,0.875625,0.854375,0.82875,0.79625,0.75375,0,0.705,0.65375,0.601875,0.54875,0.49625,0.443125,0.388125,0.329375,0.271875,0.228125,0.209375,0.219375,0.24625,0.275625,0.301875,0.32125,0.329375,0.33,0.329375,0.329375,0.329375,0.329375,0.329375,0.33,0.33,0.33,0.33,0.33,0.329375,0.329375,0.329375,0.329375,0,0.32875,0.329375,0.329375,0.329375,0.329375,0.33,0.329375,0.32875,0.32875,0.32875,0.329375,0.329375,0.33,0.329375,0.329375,0.329375,0.329375,0.329375,0.329375,0.329375,0.329375,0.329375,0.33,0.33,0.333125,0.335,0.335625,0.33875,0.34125,0.344375,0.34625,0.346875,0,0.346875,0.35,0.353125,0.35375,0.354375,0.3575,0.358125,0.3575,0.35875,0.3625,0.36375,0.365625,0.37,0.37625,0.381875,0.385625,0.3875,0.393125,0.39875,0.405,0.41125,0.416875,0.423125,0.42875,0.434375,0.44,0.44625,0.4525,0.4575,0.461875,0.465,0.468125,0,0.470625,0.473125,0.47375,0.476875,0.47875,0.47875,0.47875,0.475625,0.47375,0.47375,0.470625,0.4675,0.464375,0.46125,0.4575,0.455,0.45125,0.445625,0.440625,0.438125,0.43375,0.42875,0.42625,0.421875,0.415625,0.409375,0.40375,0.399375,0.396875,0.394375,0.39125,0.386875,0,0.3825,0.38,0.375625,0.3725,0.37,0.3675,0.364375,0.361875,0.35875,0.35875,0.355625,0.3525,0.349375,0.34375,0.34125,0.338125,0.335625,0.335625,0.335,0.3325,0.33,0.329375,0.329375,0.329375,0.329375,0.329375,0.329375,0.33,0.33,0.33,0.329375,0.33,0,0.33,0.329375,0.32875,0.329375,0.329375,0.33,0.330625,0.330625,0.33,0.329375,0.329375,0.329375,0.329375,0.329375,0.33,0.33,0.33,0.33,0.33,0.33,0.329375,0.329375,0.329375,0.33,0.33,0.33,0.329375,0.33,0.33,0.33,0.33,0.33,0,0.329375,0.329375,0.33,0.329375,0.33,0.330625,0.33,0.329375,0.329375,0.329375,0.329375,0.329375,0.329375,0.33,0.33,0.33,0.329375,0.32875,0.32875,0.33,0.329375,0.33,0.33,0.329375,0.33,0.330625,0.33,0.33,0.33,0.33,0.33,0.329375,0,0.329375,0.329375,0.33,0.33,0.33,0.33,0.329375,0.329375,0.329375,0.33,0.33,0.33,0.330625,0.33,0.33,0.329375,0.329375,0.33,0.329375,0.33,0.33,0.33,0.33,0.33,0.329375,0.329375,0.33,0.329375,0.329375,0.329375,0.33,0.33,0,0.33,0.33,0.329375,0.33,0.329375,0.329375,0.329375,0.329375,0.329375,0.33,0.33,0.33,0.33,0.329375,0.32875,0.329375,0.329375,0.329375,0.329375,0.33,0.329375,0.33,0.33,0.329375,0.329375,0.32875,0.329375,0.329375,0.329375,0.329375,0.33,0.33,0,0.33,0.329375,0.32875,0.329375,0.329375,0.329375,0.329375,0.329375,0.33,0.334375,0.339375,0.34125,0.344375,0.35125,0.359375,0.36375,0.368125,0.373125,0.375,0.375625,0.376875,0.38,0.380625,0.380625,0.380625,0.380625,0.38125,0.38125,0.381875,0.381875,0.38,0.37625,0,0.375,0.374375,0.373125,0.370625,0.369375,0.368125,0.365,0.3625,0.359375,0.355625,0.351875,0.349375,0.34625,0.34375,0.33875,0.335,0.3325,0.330625,0.33,0.329375,0.329375,0.329375,0.32875,0.32875,0.329375,0.329375,0.329375,0.33,0.329375,0.32875,0.329375,0.329375,0,0.32875,0.32875,0.329375,0.329375,0.33,0.329375,0.33,0.33,0.32875,0.32875,0.32875,0.32875,0.329375,0.329375,0.33,0.329375,0.33,0.329375,0.329375,0.329375,0.32875,0.3225,0.31125,0.301875,0.29125,0.285,0.289375,0.30375,0.33,0.37,0.419375,0.471875,0,0.525,0.5775,0.630625,0.6825,0.73625,0.786875,0.82875,0.858125,0.876875,0.88875,0.890625,0.881875,0.861875,0.838125,0.80875,0.76875,0.7225,0.67125,0.618125,0.565625,0.513125,0.460625,0.40625,0.34875,0.290625,0.24,0.211875,0.2125,0.236875,0.265625,0.29375,0.315625,0,0.328125,0.33,0.33,0.329375,0.329375,0.329375,0.329375,0.33,0.33,0.33,0.33,0.329375,0.329375,0.33,0.329375,0.329375,0.329375,0.329375,0.329375,0.33,0.33,0.33,0.329375,0.329375,0.329375,0.329375,0.329375,0.33,0.33,0.33,0.33,0.33,0,0.33,0.33,0.33,0.32875,0.32875,0.329375,0.329375,0.33,0.331875,0.335,0.335625,0.3375,0.340625,0.343125,0.345625,0.34625,0.34625,0.349375,0.3525,0.3525,0.3525,0.355625,0.358125,0.3575,0.358125,0.36125,0.36375,0.364375,0.368125,0.374375,0.38,0.385,0,0.3875,0.39125,0.396875,0.4025,0.40875,0.415,0.42125,0.4275,0.433125,0.438125,0.44375,0.449375,0.45625,0.460625,0.463125,0.465625,0.46875,0.4725,0.47375,0.475625,0.47875,0.479375,0.47875,0.476875,0.47375,0.473125,0.47125,0.46875,0.465625,0.4625,0.45875,0.455,0,0.451875,0.44625,0.44125,0.43875,0.435,0.43,0.4275,0.423125,0.4175,0.41125,0.405625,0.400625,0.3975,0.395,0.3925,0.38875,0.3825,0.380625,0.376875,0.37375,0.369375,0.3675,0.364375,0.3625,0.359375,0.358125,0.356875,0.35375,0.350625,0.345625,0.34125,0.33875,0,0.335625,0.335,0.335625,0.334375,0.330625,0.33,0.33,0.329375,0.329375,0.329375,0.329375,0.33,0.330625,0.33,0.33,0.33,0.329375,0.32875,0.32875,0.32875,0.33,0.33,0.33,0.33,0.33,0.33,0.33,0.329375,0.32875,0.329375,0.329375,0.329375,0,0.33,0.33,0.330625,0.33,0.329375,0.32875,0.32875,0.329375,0.329375,0.329375,0.33,0.33,0.33,0.33,0.329375,0.329375,0.329375,0.329375,0.329375,0.33,0.329375,0.33,0.33,0.329375,0.329375,0.33,0.329375,0.329375,0.329375,0.33,0.33,0.33,0,0.33,0.33,0.329375,0.329375,0.329375,0.329375,0.32875,0.32875,0.329375,0.329375,0.33,0.33,0.329375,0.32875,0.329375,0.329375,0.329375,0.329375,0.32875,0.329375,0.329375,0.32875,0.329375,0.33,0.33,0.329375,0.329375,0.329375,0.329375,0.329375,0.33,0.329375,0,0.329375,0.329375,0.329375,0.32875,0.329375,0.329375,0.33,0.33,0.330625,0.33,0.33,0.33,0.329375,0.329375,0.329375,0.329375,0.329375,0.33,0.33,0.33,0.33,0.329375,0.32875,0.329375,0.33,0.330625,0.330625,0.33,0.33,0.33,0.33,0.329375,0,0.32875,0.32875,0.329375,0.329375,0.33,0.33,0.329375,0.33,0.329375,0.329375,0.329375,0.329375,0.329375,0.329375,0.329375,0.329375,0.33,0.329375,0.33,0.32875,0.32875,0.32875,0.329375,0.329375,0.33,0.331875,0.336875,0.340625,0.343125,0.34875,0.356875,0.363125,0,0.36625,0.371875,0.375,0.375625,0.37625,0.37875,0.38125,0.38125,0.380625,0.38,0.380625,0.38125,0.381875,0.38125,0.380625,0.376875,0.375,0.375,0.374375,0.37125,0.36875,0.36875,0.365625,0.363125,0.359375,0.3575,0.353125,0.350625,0.3475,0.345,0.34,0.335625,0,0.333125,0.330625,0.33,0.329375,0.329375,0.329375,0.329375,0.329375,0.329375,0.33,0.33,0.329375,0.33,0.33,0.33,0.33,0.329375,0.329375,0.33,0.329375,0.329375,0.329375,0.329375,0.33,0.33,0.33,0.329375,0.329375,0.329375,0.329375,0.329375,0.33,0,0.33,0.33,0.329375,0.329375,0.329375,0.325625,0.315,0.305,0.294375,0.285625,0.286875,0.29875,0.319375,0.355,0.4025,0.454375,0.506875,0.56,0.613125,0.66625,0.718125,0.771875,0.81625,0.849375,0.871875,0.885,0.89125,0.885625,0.869375,0.84625,0.81875,0.783125,0,0.738125,0.68875,0.635625,0.5825,0.530625,0.4775,0.424375,0.3675,0.309375,0.255,0.218125,0.20875,0.2275,0.25625,0.285625,0.31,0.32625,0.33,0.33,0.33,0.33,0.33,0.329375,0.329375,0.329375,0.32875,0.329375,0.33,0.330625,0.33,0.33,0.32875,0,0.32875,0.32875,0.32875,0.329375,0.329375,0.33,0.33,0.329375,0.329375,0.33,0.33,0.329375,0.329375,0.329375,0.329375,0.329375,0.329375,0.330625,0.33,0.33,0.329375,0.329375,0.329375,0.32875,0.330625,0.334375,0.335625,0.336875,0.34,0.341875,0.345,0.34625,0,0.346875,0.3475,0.350625,0.3525,0.353125,0.355625,0.3575,0.3575,0.358125,0.360625,0.36375,0.364375,0.366875,0.371875,0.3775,0.383125,0.386875,0.39,0.395,0.400625,0.406875,0.413125,0.419375,0.425625,0.43125,0.43625,0.4425,0.448125,0.454375,0.459375,0.461875,0.465625,0,0.468125,0.47125,0.473125,0.474375,0.4775,0.47875,0.47875,0.478125,0.475,0.473125,0.471875,0.46875,0.466875,0.463125,0.460625,0.45625,0.45375,0.44875,0.443125,0.43875,0.43625,0.43125,0.4275,0.425,0.419375,0.413125,0.4075,0.401875,0.39875,0.395625,0.3925,0.39,0,0.385,0.38125,0.378125,0.375,0.37125,0.36875,0.36625,0.363125,0.36,0.35875,0.358125,0.355,0.351875,0.348125,0.3425,0.339375,0.33625,0.335,0.335,0.334375,0.33125,0.330625,0.33,0.329375,0.329375,0.329375,0.329375,0.329375,0.33,0.33,0.329375,0.33,0,0.329375,0.329375,0.329375,0.32875,0.329375,0.329375,0.329375,0.329375,0.329375,0.329375,0.329375,0.329375,0.329375,0.329375,0.329375,0.33,0.329375,0.329375,0.329375,0.33,0.329375,0.32875,0.329375,0.329375,0.329375,0.329375,0.329375,0.33,0.33,0.329375,0.329375,0.329375,0,0.329375,0.329375,0.329375,0.33,0.33,0.33,0.33,0.33,0.33,0.329375,0.329375,0.329375,0.329375,0.329375,0.329375,0.33,0.33,0.33,0.33,0.329375,0.32875,0.329375,0.329375,0.329375,0.329375,0.33,0.329375,0.329375,0.33,0.329375,0.329375,0.32875,0,0.329375,0.329375,0.330625,0.33,0.33,0.33,0.329375,0.33,0.329375,0.32875,0.32875,0.329375,0.329375,0.329375,0.329375,0.33,0.33,0.329375,0.32875,0.32875,0.32875,0.329375,0.329375,0.33,0.33,0.33,0.33,0.329375,0.329375,0.32875,0.329375,0.33,0,0.329375,0.329375,0.329375,0.33,0.33,0.33,0.329375,0.329375,0.329375,0.329375,0.329375,0.33,0.33,0.329375,0.33,0.33,0.329375,0.329375,0.329375,0.329375,0.329375,0.330625,0.33,0.33,0.33,0.329375,0.329375,0.33,0.33,0.329375,0.33,0.33,0,0.33,0.33,0.33,0.33,0.329375,0.329375,0.329375,0.33,0.33,0.33125,0.335625,0.34,0.3425,0.346875,0.35375,0.36125,0.365,0.37,0.374375,0.375625,0.375625,0.3775,0.380625,0.38125,0.38125,0.380625,0.38,0.38125,0.381875,0.38125,0.38125,0.37875,0,0.375625,0.375625,0.374375,0.371875,0.369375,0.36875,0.366875,0.36375,0.360625,0.3575,0.354375,0.351875,0.348125,0.345625,0.341875,0.336875,0.334375,0.33125,0.33,0.33,0.329375,0.33,0.329375,0.32875,0.32875,0.33,0.33,0.33,0.33,0.33,0.33,0.329375,0,0.329375,0.329375,0.329375,0.329375,0.329375,0.33,0.33,0.33,0.33,0.329375,0.33,0.329375,0.329375,0.329375,0.329375,0.33,0.329375,0.33,0.33,0.33,0.329375,0.3275,0.318125,0.308125,0.29875,0.2875,0.285,0.29375,0.311875,0.341875,0.385625,0.4375,0,0.490625,0.543125,0.595625,0.64875,0.70125,0.754375,0.8025,0.84,0.865625,0.880625,0.89,0.888125,0.875625,0.85375,0.82875,0.79625,0.75375,0.705,0.653125,0.600625,0.5475,0.495,0.441875,0.386875,0.32875,0.271875,0.228125,0.209375,0.219375,0.24625,0.275625,0.30125,0,0.321875,0.329375,0.329375,0.329375,0.33,0.33,0.329375,0.329375,0.329375,0.329375,0.32875,0.329375,0.33,0.33,0.33,0.329375,0.329375,0.32875,0.329375,0.33,0.33,0.329375,0.33,0.33,0.33,0.329375,0.329375,0.32875,0.32875,0.329375,0.329375,0.33,0,0.329375,0.329375,0.329375,0.329375,0.329375,0.329375,0.329375,0.329375,0.329375,0.333125,0.335625,0.33625,0.339375,0.34125,0.344375,0.345625,0.34625,0.346875,0.35,0.3525,0.3525,0.354375,0.3575,0.35875,0.35875,0.359375,0.3625,0.36375,0.365,0.37,0.375625,0.381875,0,0.38625,0.38875,0.393125,0.39875,0.404375,0.41,0.416875,0.4225,0.42875,0.435,0.440625,0.44625,0.4525,0.458125,0.46125,0.464375,0.4675,0.470625,0.47375,0.47375,0.47625,0.47875,0.479375,0.47875,0.475625,0.4725,0.473125,0.47,0.466875,0.464375,0.46125,0.4575,0,0.455,0.450625,0.445,0.44,0.4375,0.433125,0.42875,0.42625,0.42125,0.414375,0.40875,0.403125,0.39875,0.396875,0.39375,0.390625,0.38625,0.3825,0.38,0.37625,0.373125,0.369375,0.366875,0.364375,0.36125,0.35875,0.358125,0.35625,0.353125,0.349375,0.34375,0.340625,0,0.338125,0.335625,0.335,0.334375,0.331875,0.329375,0.33,0.33,0.33,0.329375,0.329375,0.329375,0.329375,0.33,0.33,0.33,0.33,0.329375,0.329375,0.32875,0.32875,0.32875,0.329375,0.329375,0.329375,0.329375,0.329375,0.329375,0.329375,0.329375,0.32875,0.329375,0,0.329375,0.33,0.33,0.33,0.33,0.33,0.33,0.329375,0.329375,0.329375,0.329375,0.33,0.33,0.33,0.33,0.33,0.329375,0.329375,0.329375,0.329375,0.329375,0.329375,0.329375,0.33,0.330625,0.329375,0.329375,0.329375,0.329375,0.329375,0.329375,0.33,0,0.33,0.33,0.33,0.33,0.33,0.329375,0.329375,0.329375,0.33,0.33,0.33,0.33,0.33,0.33,0.33,0.33,0.329375,0.329375,0.329375,0.33,0.33,0.33,0.329375,0.329375,0.329375,0.329375,0.33,0.329375,0.33,0.33,0.33,0.33,0,0.33,0.33,0.32875,0.32875,0.32875,0.329375,0.329375,0.329375,0.33,0.33,0.33,0.33,0.329375,0.33,0.33,0.329375,0.329375,0.33,0.33,0.33,0.33,0.33,0.329375,0.329375,0.329375,0.32875,0.32875,0.33,0.33,0.33,0.33,0.33,0,0.33,0.329375,0.33,0.329375,0.33,0.33,0.329375,0.33,0.33,0.33,0.33,0.32875,0.32875,0.329375,0.329375,0.33,0.33,0.330625,0.33,0.329375,0.329375,0.329375,0.329375,0.33,0.329375,0.33,0.33375,0.339375,0.34125,0.345625,0.3525,0.36,0,0.36375,0.368125,0.373125,0.375,0.375625,0.37625,0.38,0.38125,0.380625,0.38125,0.38125,0.380625,0.38125,0.381875,0.38125,0.38,0.37625,0.375,0.375,0.37375,0.370625,0.369375,0.3675,0.364375,0.361875,0.35875,0.355625,0.3525,0.35,0.34625,0.343125,0.338125,0,0.335625,0.3325,0.33,0.329375,0.33,0.329375,0.329375,0.329375,0.329375,0.329375,0.329375,0.329375,0.329375,0.329375,0.33,0.33,0.33,0.329375,0.329375,0.329375,0.329375,0.33,0.33,0.330625,0.33,0.33,0.329375,0.329375,0.329375,0.33,0.33,0.33,0,0.33,0.33,0.33,0.330625,0.33,0.32875,0.321875,0.310625,0.30125,0.290625,0.285,0.29,0.304375,0.330625,0.370625,0.42,0.4725,0.525,0.5775,0.63,0.683125,0.736875,0.788125,0.83,0.859375,0.876875,0.888125,0.89,0.880625,0.860625,0.836875,0.8075,0,0.768125,0.721875,0.670625,0.6175,0.565,0.513125,0.46,0.405,0.348125,0.29,0.24,0.211875,0.213125,0.2375,0.26625,0.293125,0.315625,0.328125,0.33,0.33,0.33,0.33,0.33,0.33,0.329375,0.32875,0.32875,0.329375,0.329375,0.33,0.33,0.329375,0,0.329375,0.32875,0.328125,0.32875,0.329375,0.329375,0.329375,0.33,0.33,0.329375,0.329375,0.329375,0.32875,0.32875,0.329375,0.329375,0.329375,0.329375,0.33,0.33,0.33,0.329375,0.329375,0.32875,0.329375,0.33125,0.334375,0.335,0.3375,0.340625,0.343125,0.345625,0,0.34625,0.34625,0.34875,0.351875,0.353125,0.353125,0.35625,0.35875,0.358125,0.358125,0.36125,0.363125,0.364375,0.36875,0.37375,0.38,0.384375,0.3875,0.391875,0.396875,0.4025,0.409375,0.415,0.420625,0.426875,0.4325,0.43875,0.444375,0.45,0.455625,0.460625,0.4625,0,0.46625,0.46875,0.471875,0.473125,0.475,0.478125,0.47875,0.478125,0.476875,0.473125,0.4725,0.470625,0.468125,0.465625,0.461875,0.458125,0.455,0.451875,0.446875,0.440625,0.438125,0.435,0.43,0.426875,0.423125,0.4175,0.41125,0.405,0.399375,0.3975,0.39375,0.391875,0,0.388125,0.38375,0.38125,0.3775,0.37375,0.37,0.3675,0.364375,0.3625,0.35875,0.358125,0.356875,0.35375,0.35125,0.34625,0.341875,0.339375,0.335625,0.334375,0.334375,0.333125,0.330625,0.33,0.33,0.33,0.329375,0.32875,0.32875,0.329375,0.32875,0.329375,0.329375,0,0.33,0.33,0.329375,0.329375,0.329375,0.329375,0.329375,0.329375,0.329375,0.329375,0.329375,0.329375,0.329375,0.329375,0.329375,0.329375,0.329375,0.329375,0.329375,0.33,0.33,0.33,0.33,0.329375,0.329375,0.32875,0.329375,0.329375,0.329375,0.329375,0.329375,0.33,0,0.33,0.329375,0.329375,0.32875,0.329375,0.329375,0.33,0.329375,0.329375,0.329375,0.329375,0.329375,0.329375,0.329375,0.329375,0.329375,0.329375,0.329375,0.33,0.329375,0.329375,0.33,0.329375,0.329375,0.329375,0.33,0.33,0.33,0.329375,0.33,0.33,0.33,0,0.329375,0.33,0.33,0.329375,0.33,0.33,0.33,0.329375,0.33,0.329375,0.329375,0.329375,0.32875,0.329375,0.329375,0.329375,0.33,0.33,0.329375,0.329375,0.329375,0.32875,0.32875,0.329375,0.329375,0.33,0.329375,0.329375,0.329375,0.32875,0.32875,0.32875,0,0.32875,0.329375,0.329375,0.32875,0.329375,0.33,0.329375,0.329375,0.329375,0.329375,0.329375,0.329375,0.329375,0.33,0.329375,0.33,0.33,0.329375,0.329375,0.32875,0.32875,0.329375,0.329375,0.33,0.33,0.329375,0.329375,0.329375,0.329375,0.329375,0.329375,0.329375,0,0.329375,0.329375,0.329375,0.329375,0.329375,0.33,0.33,0.329375,0.32875,0.32875,0.33125,0.336875,0.340625,0.34375,0.349375,0.3575,0.363125,0.36625,0.37125,0.374375,0.375,0.375625,0.37875,0.380625,0.380625,0.38125,0.380625,0.380625,0.380625,0.38125,0.38125,0.380625,0,0.3775,0.375625,0.375,0.375,0.370625,0.369375,0.36875,0.365,0.3625,0.359375,0.356875,0.35375,0.35125,0.3475,0.345,0.34,0.335625,0.333125,0.33,0.329375,0.329375,0.329375,0.329375,0.329375,0.32875,0.329375,0.33,0.329375,0.329375,0.329375,0.329375,0.329375,0,0.329375,0.329375,0.329375,0.33,0.329375,0.32875,0.329375,0.329375,0.329375,0.329375,0.33,0.33,0.33,0.329375,0.329375,0.329375,0.329375,0.329375,0.33,0.329375,0.329375,0.329375,0.32625,0.314375,0.304375,0.29375,0.285,0.286875,0.29875,0.32,0.35625,0.403125,0,0.455,0.50875,0.56125,0.61375,0.66625,0.719375,0.77125,0.816875,0.850625,0.8725,0.885625,0.890625,0.885,0.86875,0.845625,0.818125,0.7825,0.738125,0.6875,0.635625,0.5825,0.530625,0.4775,0.42375,0.3675,0.30875,0.25375,0.218125,0.21,0.22875,0.256875,0.285,0,0.30875,0.325625,0.329375,0.33,0.33,0.330625,0.33,0.33,0.329375,0.329375,0.329375,0.329375,0.33,0.33,0.330625,0.330625,0.33,0.329375,0.33,0.33,0.329375,0.329375,0.33,0.329375,0.33,0.330625,0.330625,0.329375,0.329375,0.329375,0.329375,0.32875,0,0.329375,0.33,0.33,0.33,0.33,0.33,0.329375,0.32875,0.329375,0.33125,0.33375,0.335625,0.336875,0.34,0.341875,0.345625,0.346875,0.34625,0.348125,0.351875,0.3525,0.353125,0.355,0.35875,0.35875,0.35875,0.360625,0.36375,0.36375,0.366875,0.371875,0.3775,0,0.383125,0.3875,0.390625,0.395625,0.40125,0.406875,0.413125,0.419375,0.425,0.430625,0.436875,0.4425,0.448125,0.45375,0.459375,0.461875,0.464375,0.4675,0.471875,0.473125,0.47375,0.4775,0.479375,0.479375,0.478125,0.474375,0.473125,0.471875,0.46875,0.46625,0.463125,0.460625,0,0.45625,0.454375,0.449375,0.4425,0.43875,0.43625,0.431875,0.4275,0.425625,0.419375,0.41375,0.4075,0.401875,0.398125,0.395,0.3925,0.39,0.384375,0.38125,0.37875,0.375625,0.371875,0.36875,0.365,0.363125,0.36,0.35875,0.3575,0.354375,0.35125,0.348125,0.343125,0,0.340625,0.336875,0.335,0.335,0.334375,0.33125,0.33,0.33,0.329375,0.329375,0.329375,0.33,0.329375,0.32875,0.329375,0.33,0.329375,0.33,0.329375,0.33,0.329375,0.32875,0.32875,0.329375,0.329375,0.33,0.33,0.33,0.33,0.33,0.33,0.329375,0,0.32875,0.32875,0.329375,0.33,0.33,0.330625,0.33,0.33,0.33,0.329375,0.329375,0.329375,0.329375,0.32875,0.33,0.329375,0.329375,0.32875,0.329375,0.329375,0.329375,0.32875,0.32875,0.329375,0.33,0.33,0.329375,0.33,0.329375,0.329375,0.329375,0.32875,0,0.32875,0.329375,0.329375,0.33,0.33,0.33,0.329375,0.329375,0.33,0.33,0.329375,0.33,0.33,0.33,0.329375,0.329375,0.33,0.329375,0.32875,0.32875,0.329375,0.329375,0.33,0.329375,0.33,0.33,0.33,0.33,0.329375,0.329375,0.329375,0.329375,0,0.329375,0.329375,0.329375,0.329375,0.329375,0.329375,0.32875,0.329375,0.33,0.33,0.329375,0.329375,0.329375,0.329375,0.33,0.33,0.33,0.329375,0.329375,0.33,0.33,0.33,0.33,0.329375,0.329375,0.33,0.329375,0.329375,0.329375,0.33,0.33,0.33,0,0.330625,0.33,0.33,0.329375,0.329375,0.329375,0.329375,0.33,0.330625,0.33,0.33,0.329375,0.329375,0.33,0.329375,0.329375,0.329375,0.329375,0.33,0.33,0.33,0.33,0.33,0.33,0.329375,0.329375,0.330625,0.335,0.34,0.3425,0.3475,0.354375,0,0.361875,0.365625,0.37125,0.374375,0.375,0.375,0.3775,0.38125,0.38125,0.38125,0.38125,0.380625,0.380625,0.38125,0.381875,0.38125,0.37875,0.37625,0.375,0.375,0.3725,0.369375,0.36875,0.36625,0.36375,0.36,0.358125,0.354375,0.351875,0.34875,0.34625,0.341875,0,0.33625,0.33375,0.330625,0.329375,0.33,0.33,0.33,0.329375,0.329375,0.329375,0.329375,0.329375,0.329375,0.32875,0.329375,0.33,0.33,0.329375,0.33,0.329375,0.32875,0.329375,0.329375,0.329375,0.33,0.330625,0.33,0.33,0.33,0.329375,0.329375,0.32875,0,0.329375,0.33,0.329375,0.329375,0.33,0.33,0.3275,0.318125,0.30875,0.298125,0.2875,0.285,0.29375,0.311875,0.343125,0.3875,0.438125,0.49125,0.54375,0.595625,0.64875,0.701875,0.755,0.80375,0.84,0.866875,0.881875,0.890625,0.888125,0.875,0.853125,0.828125,0,0.795,0.75375,0.705,0.653125,0.6,0.5475,0.494375,0.44125,0.385625,0.3275,0.270625,0.2275,0.209375,0.219375,0.246875,0.27625,0.301875,0.32125,0.32875,0.32875,0.329375,0.33,0.33,0.33,0.329375,0.329375,0.33,0.329375,0.329375,0.329375,0.33,0.33,0,0.33,0.33,0.329375,0.33,0.33,0.329375,0.329375,0.329375,0.33,0.33,0.33,0.329375,0.329375,0.329375,0.329375,0.33,0.329375,0.33,0.33,0.33,0.33,0.330625,0.33,0.329375,0.329375,0.33,0.333125,0.335,0.335625,0.339375,0.341875,0.345,0,0.34625,0.346875,0.3475,0.35,0.351875,0.3525,0.35375,0.3575,0.35875,0.35875,0.359375,0.3625,0.363125,0.364375,0.37,0.375625,0.38125,0.385625,0.388125,0.39375,0.399375,0.405,0.41125,0.416875,0.423125,0.42875,0.434375,0.44,0.44625,0.453125,0.45875,0.461875,0,0.46375,0.466875,0.47,0.473125,0.47375,0.476875,0.479375,0.48,0.47875,0.475625,0.4725,0.4725,0.47,0.4675,0.464375,0.461875,0.4575,0.455,0.450625,0.445,0.44,0.4375,0.433125,0.428125,0.42625,0.421875,0.41625,0.41,0.40375,0.399375,0.396875,0.39375,0,0.39125,0.38625,0.381875,0.38,0.37625,0.37375,0.37,0.3675,0.36375,0.36125,0.358125,0.3575,0.355625,0.353125,0.35,0.345,0.341875,0.338125,0.335,0.334375,0.334375,0.3325,0.329375,0.329375,0.330625,0.33,0.329375,0.329375,0.329375,0.32875,0.329375,0.329375,0,0.329375,0.33,0.33,0.33,0.329375,0.329375,0.329375,0.329375,0.329375,0.33,0.33,0.33,0.33,0.330625,0.33,0.329375,0.329375,0.329375,0.329375,0.329375,0.33,0.329375,0.33,0.33,0.329375,0.329375,0.32875,0.33,0.33,0.33,0.329375,0.33,0,0.330625,0.33,0.33,0.329375,0.329375,0.329375,0.329375,0.329375,0.329375,0.329375,0.329375,0.33,0.33,0.329375,0.329375,0.32875,0.32875,0.329375,0.33,0.329375,0.33,0.33,0.33,0.329375,0.32875,0.329375,0.329375,0.329375,0.329375,0.33,0.33,0.33,0,0.33,0.33,0.33,0.33,0.33,0.33,0.33,0.33,0.33,0.33,0.330625,0.33,0.329375,0.32875,0.329375,0.33,0.329375,0.33,0.33,0.33,0.329375,0.329375,0.329375,0.329375,0.329375,0.329375,0.33,0.33,0.329375,0.329375,0.33,0.329375,0,0.329375,0.32875,0.329375,0.329375,0.329375,0.329375,0.329375,0.329375,0.33,0.329375,0.32875,0.329375,0.32875,0.32875,0.329375,0.330625,0.330625,0.33,0.329375,0.329375,0.329375,0.33,0.33,0.329375,0.329375,0.329375,0.33,0.33,0.329375,0.33,0.329375,0.329375,0,0.329375,0.329375,0.329375,0.33,0.33,0.329375,0.329375,0.329375,0.329375,0.329375,0.329375,0.33375,0.33875,0.34125,0.345625,0.351875,0.36,0.364375,0.368125,0.373125,0.375,0.375,0.37625,0.38,0.38125,0.38125,0.380625,0.380625,0.380625,0.380625,0.38125,0.38125,0,0.379375,0.375625,0.375,0.375,0.37375,0.37,0.369375,0.3675,0.364375,0.36125,0.358125,0.355625,0.353125,0.35,0.346875,0.344375,0.338125,0.334375,0.33125,0.32875,0.33,0.33,0.33,0.33,0.33,0.329375,0.329375,0.329375,0.329375,0.329375,0.329375,0.33,0,0.329375,0.33,0.33,0.33,0.329375,0.329375,0.329375,0.329375,0.329375,0.33,0.33,0.33,0.33,0.33,0.329375,0.329375,0.329375,0.329375,0.329375,0.329375,0.33,0.329375,0.329375,0.3225,0.310625,0.30125,0.290625,0.284375,0.29,0.305,0.33125,0.371875,0,0.42125,0.47375,0.52625,0.57875,0.63125,0.684375,0.738125,0.78875,0.83,0.859375,0.878125,0.88875,0.890625,0.880625,0.86125,0.8375,0.8075,0.7675,0.72125,0.670625,0.618125,0.564375,0.511875,0.45875,0.404375,0.3475,0.28875,0.239375,0.2125,0.21375,0.2375,0.266875,0,0.294375,0.31625,0.328125,0.33,0.33,0.33,0.33,0.33,0.33,0.33,0.329375,0.33,0.33,0.329375,0.33,0.329375,0.329375,0.33,0.33,0.329375,0.329375,0.32875,0.32875,0.329375,0.33,0.33,0.329375,0.33,0.33,0.329375,0.329375,0.33,0,0.33,0.329375,0.33,0.33,0.33,0.33,0.33,0.329375,0.329375,0.329375,0.330625,0.33375,0.334375,0.336875,0.340625,0.34375,0.346875,0.346875,0.34625,0.34875,0.351875,0.3525,0.3525,0.355625,0.358125,0.35875,0.359375,0.361875,0.36375,0.364375,0.368125,0.37375,0,0.379375,0.384375,0.386875,0.391875,0.398125,0.40375,0.40875,0.414375,0.420625,0.42625,0.433125,0.43875,0.444375,0.450625,0.45625,0.46125,0.463125,0.46625,0.46875,0.471875,0.473125,0.475,0.47875,0.479375,0.479375,0.4775,0.474375,0.4725,0.47,0.4675,0.465,0.461875,0,0.45875,0.455625,0.453125,0.4475,0.44125,0.438125,0.435,0.429375,0.426875,0.423125,0.4175,0.41125,0.405625,0.4,0.3975,0.394375,0.391875,0.3875,0.3825,0.380625,0.3775,0.374375,0.370625,0.36875,0.365,0.361875,0.359375,0.358125,0.356875,0.353125,0.35125,0.34625,0,0.341875,0.339375,0.335625,0.335,0.335,0.333125,0.33,0.33,0.33,0.33,0.33,0.33,0.33,0.329375,0.32875,0.329375,0.33,0.33,0.33,0.33,0.33,0.33,0.329375,0.329375,0.33,0.329375,0.329375,0.329375,0.330625,0.330625,0.33125,0.330625,0,0.330625,0.33,0.329375,0.329375,0.329375,0.33,0.33,0.33,0.33,0.33,0.329375,0.33,0.33,0.33,0.329375,0.329375,0.33,0.33,0.33,0.329375,0.329375,0.329375,0.329375,0.329375,0.329375,0.329375,0.33,0.33,0.329375,0.329375,0.329375,0.329375,0,0.329375,0.329375,0.329375,0.329375,0.329375,0.329375,0.329375,0.329375,0.329375,0.329375,0.32875,0.32875,0.329375,0.329375,0.33,0.33,0.33,0.329375,0.329375,0.329375,0.32875,0.32875,0.329375,0.329375,0.329375,0.329375,0.329375,0.32875,0.329375,0.329375,0.329375,0.32875,0,0.32875,0.32875,0.329375,0.33,0.33,0.33,0.329375,0.32875,0.329375,0.329375,0.33,0.33,0.329375,0.32875,0.329375,0.33,0.33,0.329375,0.329375,0.329375,0.329375,0.329375,0.33,0.33,0.330625,0.33,0.33,0.329375,0.329375,0.32875,0.329375,0.329375,0,0.329375,0.33,0.329375,0.329375,0.329375,0.32875,0.329375,0.329375,0.329375,0.329375,0.329375,0.329375,0.33,0.329375,0.329375,0.329375,0.32875,0.32875,0.32875,0.329375,0.329375,0.329375,0.329375,0.329375,0.33,0.32875,0.32875,0.33125,0.33625,0.34,0.34375,0.349375,0,0.3575,0.363125,0.366875,0.371875,0.374375,0.37375,0.375,0.37875,0.38125,0.381875,0.38125,0.380625,0.380625,0.380625,0.380625,0.38125,0.38,0.376875,0.375,0.375,0.374375,0.37125,0.36875,0.368125,0.365,0.3625,0.35875,0.35625,0.353125,0.35125,0.3475,0.344375,0,0.34,0.335625,0.3325,0.33,0.33,0.329375,0.329375,0.33,0.329375,0.33,0.329375,0.32875,0.329375,0.32875,0.328125,0.32875,0.32875,0.329375,0.329375,0.33,0.33,0.329375,0.32875,0.32875,0.329375,0.329375,0.329375,0.33,0.33,0.329375,0.329375,0.329375,0,0.329375,0.329375,0.32875,0.329375,0.329375,0.329375,0.33,0.325625,0.31375,0.305,0.294375,0.285,0.28625,0.29875,0.320625,0.356875,0.404375,0.45625,0.508125,0.56125,0.61375,0.665625,0.71875,0.77125,0.816875,0.85,0.8725,0.885625,0.890625,0.884375,0.8675,0.844375,0,0.8175,0.781875,0.738125,0.6875,0.635,0.5825,0.53,0.476875,0.423125,0.36625,0.3075,0.253125,0.218125,0.209375,0.22875,0.2575,0.285625,0.309375,0.325625,0.32875,0.32875,0.329375,0.329375,0.33,0.33,0.329375,0.329375,0.329375,0.329375,0.329375,0.329375,0.329375,0,0.329375,0.329375,0.33,0.33,0.329375,0.329375,0.329375,0.329375,0.329375,0.329375,0.33,0.33,0.33,0.33,0.33,0.33,0.329375,0.329375,0.329375,0.329375,0.329375,0.33,0.33,0.33,0.329375,0.329375,0.33,0.333125,0.334375,0.33625,0.339375,0.341875,0,0.345625,0.346875,0.34625,0.348125,0.35125,0.351875,0.351875,0.355,0.358125,0.35875,0.35875,0.36,0.36375,0.36375,0.365625,0.37125,0.3775,0.383125,0.38625,0.39,0.395,0.40125,0.406875,0.4125,0.419375,0.424375,0.430625,0.43625,0.441875,0.448125,0.455,0.459375,0,0.46125,0.465,0.4675,0.470625,0.4725,0.474375,0.4775,0.47875,0.47875,0.478125,0.474375,0.473125,0.47125,0.468125,0.46625,0.4625,0.46,0.456875,0.45375,0.44875,0.4425,0.43875,0.43625,0.430625,0.426875,0.424375,0.419375,0.413125,0.408125,0.401875,0.39875,0.395,0,0.391875,0.38875,0.383125,0.380625,0.378125,0.375625,0.371875,0.369375,0.36625,0.363125,0.36,0.358125,0.35625,0.35375,0.3525,0.3475,0.341875,0.339375,0.33625,0.335,0.334375,0.33375,0.330625,0.33,0.329375,0.33,0.329375,0.33,0.329375,0.32875,0.32875,0.329375,0,0.329375,0.329375,0.329375,0.33,0.329375,0.329375,0.329375,0.33,0.329375,0.32875,0.329375,0.329375,0.329375,0.33,0.330625,0.33,0.33,0.329375,0.329375,0.329375,0.329375,0.329375,0.33,0.33,0.33,0.33,0.33,0.329375,0.32875,0.32875,0.329375,0.329375,0,0.33,0.329375,0.329375,0.33,0.329375,0.329375,0.32875,0.329375,0.329375,0.329375,0.33,0.33,0.329375,0.33,0.329375,0.329375,0.329375,0.329375,0.32875,0.32875,0.33,0.33,0.33,0.33,0.33,0.329375,0.329375,0.329375,0.329375,0.329375,0.329375,0.329375,0,0.33,0.33,0.33,0.329375,0.329375,0.329375,0.329375,0.329375,0.329375,0.329375,0.33,0.329375,0.329375,0.329375,0.32875,0.329375,0.329375,0.329375,0.33,0.33,0.33,0.33,0.33,0.329375,0.329375,0.329375,0.329375,0.329375,0.329375,0.329375,0.329375,0.33,0,0.329375,0.329375,0.329375,0.329375,0.329375,0.329375,0.33,0.33,0.33,0.33,0.329375,0.329375,0.329375,0.329375,0.329375,0.33,0.329375,0.329375,0.33,0.33,0.329375,0.32875,0.329375,0.329375,0.329375,0.329375,0.329375,0.329375,0.33,0.33,0.329375,0.329375,0,0.329375,0.329375,0.329375,0.329375,0.329375,0.330625,0.330625,0.33,0.33,0.329375,0.329375,0.330625,0.335625,0.34,0.341875,0.3475,0.354375,0.361875,0.365625,0.370625,0.374375,0.375,0.375,0.3775,0.38125,0.381875,0.381875,0.381875,0.381875,0.38125,0.380625,0.38125,0,0.38125,0.378125,0.375,0.375,0.374375,0.3725,0.37,0.369375,0.36625,0.36375,0.360625,0.3575,0.35375,0.351875,0.34875,0.346875,0.3425,0.336875,0.33375,0.330625,0.32875,0.329375,0.33,0.33,0.330625,0.33,0.33,0.329375,0.329375,0.329375,0.329375,0.329375,0,0.329375,0.329375,0.329375,0.33,0.33,0.33,0.33,0.329375,0.329375,0.329375,0.329375,0.33,0.33,0.33,0.329375,0.329375,0.329375,0.329375,0.32875,0.329375,0.33,0.33,0.33,0.328125,0.31875,0.308125,0.2975,0.28625,0.28375,0.293125,0.311875,0.34375,0,0.3875,0.43875,0.49125,0.544375,0.59625,0.649375,0.70125,0.75375,0.80375,0.84125,0.866875,0.8825,0.89125,0.88875,0.875,0.853125,0.8275,0.795625,0.75375,0.705625,0.653125,0.6,0.5475,0.495,0.44125,0.385625,0.3275,0.270625,0.2275,0.209375,0.220625,0.248125,0,0.27625,0.301875,0.321875,0.32875,0.329375,0.329375,0.329375,0.33,0.33,0.329375,0.329375,0.329375,0.329375,0.329375,0.32875,0.32875,0.329375,0.329375,0.33,0.33,0.329375,0.33,0.329375,0.329375,0.32875,0.32875,0.329375,0.33,0.33,0.33,0.329375,0.329375,0,0.33,0.329375,0.329375,0.329375,0.329375,0.33,0.33,0.33,0.33,0.33,0.329375,0.3325,0.335,0.335,0.33875,0.341875,0.344375,0.34625,0.34625,0.346875,0.35,0.3525,0.351875,0.35375,0.3575,0.358125,0.35875,0.36,0.363125,0.364375,0.365,0.369375,0,0.375625,0.38125,0.385,0.388125,0.393125,0.399375,0.405625,0.410625,0.416875,0.423125,0.42875,0.434375,0.44,0.44625,0.4525,0.45875,0.4625,0.464375,0.4675,0.470625,0.4725,0.473125,0.47625,0.47875,0.48,0.479375,0.475625,0.4725,0.4725,0.46875,0.46625,0.463125,0,0.460625,0.456875,0.455,0.45125,0.444375,0.439375,0.4375,0.4325,0.428125,0.425625,0.42125,0.415625,0.409375,0.40375,0.399375,0.396875,0.39375,0.390625,0.38625,0.381875,0.38,0.37625,0.373125,0.37,0.368125,0.364375,0.36125,0.35875,0.358125,0.355625,0.3525,0.349375,0,0.344375,0.34125,0.33875,0.335625,0.335,0.334375,0.33125,0.329375,0.329375,0.329375,0.33,0.33,0.33,0.33,0.329375,0.329375,0.329375,0.32875,0.32875,0.329375,0.329375,0.329375,0.329375,0.33,0.33,0.32875,0.32875,0.329375,0.329375,0.329375,0.329375,0.33,0,0.33,0.329375,0.329375,0.329375,0.329375,0.329375,0.329375,0.329375,0.329375,0.33,0.329375,0.329375,0.329375,0.329375,0.32875,0.328125,0.32875,0.329375,0.329375,0.329375,0.329375,0.329375,0.329375,0.329375,0.33,0.329375,0.32875,0.329375,0.33,0.33,0.33,0.33,0,0.329375,0.329375,0.329375,0.329375,0.329375,0.329375,0.329375,0.33,0.33,0.33,0.329375,0.329375,0.33,0.329375,0.32875,0.329375,0.33,0.33,0.33,0.330625,0.329375,0.32875,0.32875,0.32875,0.329375,0.329375,0.33,0.33,0.33,0.33,0.329375,0.329375,0,0.32875,0.329375,0.329375,0.329375,0.329375,0.329375,0.329375,0.329375,0.329375,0.32875,0.329375,0.329375,0.329375,0.329375,0.33,0.329375,0.329375,0.329375,0.329375,0.32875,0.32875,0.32875,0.329375,0.329375,0.329375,0.329375,0.33,0.329375,0.329375,0.32875,0.32875,0.329375,0,0.329375,0.329375,0.329375,0.329375,0.329375,0.32875,0.329375,0.329375,0.32875,0.32875,0.329375,0.329375,0.329375,0.329375,0.329375,0.329375,0.329375,0.32875,0.32875,0.32875,0.329375,0.329375,0.33,0.33,0.33,0.33,0.329375,0.329375,0.333125,0.338125,0.34125,0.345,0,0.351875,0.36,0.364375,0.368125,0.373125,0.375,0.375,0.37625,0.379375,0.380625,0.38125,0.38125,0.38125,0.38125,0.38125,0.38125,0.380625,0.379375,0.375625,0.375,0.375,0.37375,0.370625,0.369375,0.366875,0.364375,0.361875,0.358125,0.355,0.351875,0.349375,0.34625,0,0.344375,0.338125,0.334375,0.3325,0.329375,0.32875,0.329375,0.329375,0.329375,0.329375,0.33,0.329375,0.329375,0.329375,0.329375,0.32875,0.32875,0.329375,0.329375,0.329375,0.329375,0.329375,0.329375,0.329375,0.329375,0.32875,0.32875,0.329375,0.329375,0.33,0.329375,0.329375,0,0.329375,0.33,0.329375,0.32875,0.329375,0.329375,0.33,0.329375,0.3225,0.31125,0.301875,0.290625,0.285,0.29,0.304375,0.330625,0.37125,0.42125,0.474375,0.52625,0.57875,0.63125,0.683125,0.736875,0.788125,0.829375,0.859375,0.8775,0.889375,0.890625,0.880625,0.86,0,0.83625,0.80625,0.7675,0.72125,0.67,0.616875,0.564375,0.511875,0.45875,0.405,0.346875,0.28875,0.23875,0.211875,0.21375,0.238125,0.2675,0.294375,0.316875,0.328125,0.32875,0.328125,0.32875,0.33,0.33,0.33,0.33,0.33,0.33,0.329375,0.33,0.329375,0,0.329375,0.33,0.329375,0.329375,0.33,0.33,0.33,0.329375,0.329375,0.329375,0.329375,0.329375,0.329375,0.33,0.329375,0.329375,0.33,0.33,0.329375,0.329375,0.33,0.329375,0.329375,0.33,0.33,0.329375,0.329375,0.33125,0.33375,0.335,0.336875,0.34,0,0.343125,0.34625,0.3475,0.346875,0.34875,0.351875,0.351875,0.3525,0.355625,0.358125,0.358125,0.359375,0.361875,0.36375,0.364375,0.368125,0.373125,0.379375,0.384375,0.386875,0.391875,0.3975,0.403125,0.41,0.415,0.42125,0.426875,0.431875,0.438125,0.444375,0.45125,0.456875,0,0.46125,0.46375,0.466875,0.46875,0.471875,0.4725,0.474375,0.4775,0.47875,0.479375,0.4775,0.474375,0.473125,0.470625,0.4675,0.464375,0.46125,0.45875,0.455625,0.4525,0.446875,0.441875,0.43875,0.434375,0.429375,0.42625,0.423125,0.4175,0.411875,0.40625,0.40125,0.398125,0,0.394375,0.391875,0.386875,0.3825,0.38,0.376875,0.374375,0.37125,0.36875,0.365625,0.3625,0.35875,0.3575,0.35625,0.35375,0.350625,0.345625,0.341875,0.34,0.33625,0.335625,0.335,0.333125,0.33,0.329375,0.329375,0.33,0.329375,0.33,0.329375,0.329375,0.32875,0,0.329375,0.329375,0.33,0.33,0.33,0.329375,0.33,0.33,0.329375,0.33,0.329375,0.329375,0.329375,0.329375,0.329375,0.33,0.33,0.33,0.33,0.329375,0.329375,0.329375,0.329375,0.329375,0.329375,0.329375,0.33,0.33,0.33,0.329375,0.329375,0.329375,0,0.329375,0.329375,0.329375,0.33,0.33,0.33,0.33,0.33,0.33,0.329375,0.329375,0.329375,0.33,0.33,0.33,0.33,0.329375,0.329375,0.33,0.329375,0.32875,0.329375,0.329375,0.329375,0.33,0.329375,0.329375,0.33,0.33,0.33,0.329375,0.329375,0,0.329375,0.33,0.33,0.33,0.33,0.33,0.329375,0.329375,0.329375,0.329375,0.329375,0.33,0.33,0.33,0.329375,0.329375,0.33,0.329375,0.32875,0.329375,0.32875,0.329375,0.33,0.33,0.33,0.329375,0.329375,0.329375,0.32875,0.329375,0.32875,0.329375,0,0.329375,0.33,0.33,0.329375,0.329375,0.32875,0.329375,0.329375,0.32875,0.329375,0.33,0.33,0.329375,0.329375,0.329375,0.32875,0.32875,0.33,0.33,0.329375,0.329375,0.329375,0.329375,0.329375,0.329375,0.329375,0.329375,0.329375,0.329375,0.33,0.33,0.33,0,0.33,0.329375,0.33,0.329375,0.329375,0.33,0.329375,0.329375,0.33,0.33,0.329375,0.329375,0.331875,0.336875,0.340625,0.34375,0.349375,0.356875,0.363125,0.366875,0.3725,0.375,0.375,0.375625,0.37875,0.38,0.380625,0.380625,0.38125,0.380625,0.38125,0.38125,0,0.38125,0.380625,0.376875,0.374375,0.374375,0.374375,0.37125,0.37,0.369375,0.365,0.363125,0.359375,0.356875,0.353125,0.35125,0.3475,0.345,0.339375,0.335625,0.33375,0.33,0.32875,0.329375,0.329375,0.329375,0.329375,0.33,0.33,0.33,0.33,0.329375,0.329375,0,0.329375,0.329375,0.329375,0.33,0.33,0.33,0.330625,0.33,0.329375,0.329375,0.329375,0.329375,0.329375,0.33,0.33,0.33,0.33,0.329375,0.329375,0.329375,0.329375,0.329375,0.33,0.33,0.32625,0.315,0.305625,0.294375,0.285625,0.286875,0.29875,0.320625,0,0.356875,0.405,0.4575,0.51,0.5625,0.615,0.666875,0.72,0.771875,0.8175,0.850625,0.8725,0.885625,0.891875,0.88625,0.86875,0.844375,0.8175,0.78125,0.736875,0.686875,0.635,0.581875,0.529375,0.476875,0.423125,0.36625,0.3075,0.2525,0.218125,0.209375,0.229375,0,0.258125,0.285625,0.31,0.32625,0.32875,0.32875,0.329375,0.329375,0.32875,0.329375,0.33,0.329375,0.329375,0.33,0.329375,0.32875,0.32875,0.32875,0.32875,0.329375,0.33,0.33,0.33,0.32875,0.329375,0.329375,0.32875,0.329375,0.33,0.33,0.33,0.329375,0,0.329375,0.329375,0.32875,0.329375,0.329375,0.329375,0.329375,0.329375,0.33,0.329375,0.329375,0.330625,0.33375,0.334375,0.335625,0.339375,0.341875,0.345625,0.346875,0.346875,0.3475,0.35125,0.3525,0.3525,0.354375,0.3575,0.358125,0.358125,0.360625,0.363125,0.364375,0.366875,0,0.37125,0.376875,0.383125,0.38625,0.39,0.39625,0.401875,0.4075,0.413125,0.419375,0.424375,0.43,0.43625,0.441875,0.448125,0.454375,0.46,0.4625,0.46625,0.468125,0.470625,0.4725,0.473125,0.476875,0.479375,0.48,0.47875,0.474375,0.473125,0.47125,0.468125,0.46625,0,0.4625,0.459375,0.45625,0.454375,0.449375,0.443125,0.439375,0.43625,0.43125,0.426875,0.424375,0.42,0.41375,0.4075,0.401875,0.398125,0.395625,0.3925,0.389375,0.384375,0.38125,0.378125,0.375,0.371875,0.369375,0.366875,0.36375,0.36,0.358125,0.356875,0.354375,0.351875,0,0.348125,0.3425,0.340625,0.3375,0.335,0.334375,0.33375,0.330625,0.32875,0.32875,0.329375,0.330625,0.330625,0.330625,0.33,0.33,0.33,0.32875,0.32875,0.329375,0.329375,0.33,0.329375,0.329375,0.33,0.33,0.329375,0.32875,0.329375,0.329375,0.329375,0.329375,0,0.329375,0.33,0.329375,0.329375,0.329375,0.33,0.33,0.329375,0.329375,0.33,0.329375,0.33,0.329375,0.329375,0.33,0.33,0.329375,0.32875,0.329375,0.329375,0.329375,0.33,0.33,0.33,0.329375,0.329375,0.329375,0.329375,0.329375,0.329375,0.33,0.329375,0,0.32875,0.33,0.329375,0.329375,0.329375,0.329375,0.329375,0.329375,0.33,0.33,0.33,0.33,0.33,0.32875,0.329375,0.329375,0.329375,0.329375,0.33,0.33,0.33,0.329375,0.329375,0.329375,0.329375,0.329375,0.329375,0.329375,0.33,0.33,0.329375,0.329375,0,0.33,0.329375,0.33,0.32875,0.329375,0.329375,0.33,0.33,0.33,0.33,0.33,0.33,0.32875,0.329375,0.329375,0.33,0.33,0.33,0.330625,0.33,0.33,0.33,0.33,0.33,0.33,0.33,0.33,0.33,0.33,0.33,0.33,0.33,0,0.33,0.329375,0.329375,0.329375,0.33,0.33,0.33,0.33,0.33,0.329375,0.329375,0.329375,0.329375,0.329375,0.33,0.33,0.33,0.329375,0.329375,0.329375,0.329375,0.329375,0.329375,0.33,0.33,0.33,0.33,0.33,0.33125,0.335625,0.339375,0.341875,0,0.346875,0.354375,0.3625,0.365,0.37,0.374375,0.375,0.375,0.376875,0.38,0.380625,0.38125,0.381875,0.381875,0.38125,0.381875,0.38125,0.380625,0.3775,0.374375,0.374375,0.375,0.3725,0.370625,0.369375,0.366875,0.36375,0.36,0.3575,0.35375,0.35125,0.348125,0,0.34625,0.3425,0.336875,0.334375,0.330625,0.329375,0.32875,0.329375,0.329375,0.329375,0.330625,0.33,0.33,0.33,0.33,0.329375,0.329375,0.329375,0.329375,0.329375,0.329375,0.329375,0.329375,0.329375,0.329375,0.33,0.329375,0.329375,0.32875,0.329375,0.33,0.329375,0,0.33,0.329375,0.329375,0.32875,0.32875,0.329375,0.329375,0.329375,0.328125,0.31875,0.30875,0.2975,0.286875,0.285,0.29375,0.31125,0.343125,0.3875,0.44,0.491875,0.544375,0.596875,0.649375,0.701875,0.755,0.80375,0.840625,0.866875,0.881875,0.890625,0.888125,0.875,0,0.8525,0.8275,0.794375,0.751875,0.70375,0.651875,0.599375,0.54625,0.493125,0.440625,0.385,0.326875,0.269375,0.22625,0.20875,0.22,0.2475,0.27625,0.3025,0.3225,0.329375,0.329375,0.33,0.329375,0.329375,0.329375,0.33,0.33,0.33,0.33,0.329375,0.32875,0,0.32875,0.32875,0.329375,0.329375,0.329375,0.33,0.33,0.329375,0.329375,0.329375,0.329375,0.32875,0.329375,0.329375,0.33,0.33,0.33,0.33,0.33,0.329375,0.32875,0.32875,0.32875,0.32875,0.329375,0.329375,0.329375,0.33,0.3325,0.335,0.335,0.338125,0,0.340625,0.34375,0.34625,0.346875,0.346875,0.350625,0.3525,0.351875,0.353125,0.356875,0.358125,0.3575,0.359375,0.3625,0.363125,0.365,0.37,0.375,0.380625,0.385,0.388125,0.393125,0.399375,0.405,0.41125,0.416875,0.423125,0.42875,0.43375,0.44,0.445625,0.451875,0,0.458125,0.46125,0.464375,0.4675,0.47,0.4725,0.473125,0.475625,0.478125,0.478125,0.478125,0.475625,0.473125,0.473125,0.47,0.466875,0.46375,0.460625,0.456875,0.454375,0.450625,0.445,0.44,0.4375,0.433125,0.428125,0.425625,0.42,0.415625,0.409375,0.403125,0.399375,0,0.3975,0.39375,0.390625,0.385625,0.38125,0.37875,0.375,0.3725,0.369375,0.36625,0.36375,0.36125,0.358125,0.3575,0.355,0.3525,0.34875,0.34375,0.340625,0.338125,0.335,0.335,0.335,0.331875,0.329375,0.329375,0.32875,0.329375,0.329375,0.329375,0.329375,0.33,0,0.33,0.329375,0.32875,0.32875,0.32875,0.32875,0.329375,0.33,0.33,0.33,0.33,0.329375,0.32875,0.32875,0.329375,0.329375,0.329375,0.329375,0.329375,0.33,0.329375,0.329375,0.32875,0.32875,0.329375,0.329375,0.329375,0.32875,0.329375,0.329375,0.329375,0.329375,0,0.32875,0.32875,0.32875,0.329375,0.329375,0.329375,0.329375,0.329375,0.329375,0.32875,0.32875,0.32875,0.32875,0.32875,0.32875,0.329375,0.329375,0.329375,0.329375,0.33,0.329375,0.32875,0.329375,0.329375,0.329375,0.329375,0.329375,0.329375,0.329375,0.329375,0.32875,0.32875,0,0.32875,0.32875,0.329375,0.329375,0.329375,0.329375,0.329375,0.329375,0.32875,0.329375,0.329375,0.329375,0.329375,0.329375,0.329375,0.329375,0.329375,0.329375,0.32875,0.32875,0.32875,0.32875,0.329375,0.33,0.33,0.329375,0.329375,0.329375,0.329375,0.329375,0.329375,0.329375,0,0.329375,0.329375,0.329375,0.33,0.329375,0.32875,0.329375,0.32875,0.329375,0.329375,0.329375,0.329375,0.329375,0.329375,0.329375,0.329375,0.329375,0.329375,0.32875,0.329375,0.329375,0.33,0.329375,0.329375,0.329375,0.329375,0.329375,0.329375,0.32875,0.329375,0.329375,0.33,0,0.33,0.33,0.329375,0.329375,0.33,0.33,0.329375,0.329375,0.329375,0.329375,0.33,0.329375,0.33,0.33375,0.33875,0.34125,0.345625,0.351875,0.36,0.364375,0.36875,0.37375,0.375625,0.375625,0.376875,0.38,0.380625,0.380625,0.38125,0.380625,0.38125,0.38125,0,0.38125,0.38125,0.37875,0.375625,0.375,0.374375,0.37375,0.37,0.37,0.368125,0.364375,0.361875,0.358125,0.355,0.351875,0.34875,0.34625,0.34375,0.338125,0.335,0.3325,0.33,0.329375,0.329375,0.32875,0.32875,0.32875,0.329375,0.33,0.329375,0.329375,0.33,0,0.32875,0.32875,0.329375,0.33,0.33,0.329375,0.329375,0.329375,0.33,0.33,0.329375,0.329375,0.329375,0.329375,0.329375,0.329375,0.329375,0.33,0.329375,0.329375,0.329375,0.329375,0.329375,0.329375,0.32875,0.321875,0.31125,0.30125,0.290625,0.284375,0.29,0.305,0,0.33125,0.37125,0.421875,0.475,0.5275,0.58,0.631875,0.685,0.738125,0.78875,0.829375,0.859375,0.8775,0.889375,0.89125,0.880625,0.86,0.83625,0.806875,0.766875,0.719375,0.668125,0.615625,0.56375,0.51125,0.458125,0.40375,0.34625,0.2875,0.238125,0.211875,0.213125,0,0.2375,0.2675,0.295,0.31625,0.328125,0.329375,0.329375,0.329375,0.329375,0.32875,0.329375,0.33,0.33,0.33,0.329375,0.329375,0.329375,0.329375,0.32875,0.32875,0.32875,0.32875,0.329375,0.329375,0.33,0.329375,0.32875,0.329375,0.32875,0.32875,0.329375,0.329375,0,0.329375,0.33,0.33,0.33,0.329375,0.329375,0.32875,0.32875,0.329375,0.329375,0.329375,0.33,0.331875,0.334375,0.335,0.3375,0.340625,0.343125,0.34625,0.34625,0.346875,0.35,0.3525,0.353125,0.353125,0.355625,0.3575,0.3575,0.35875,0.361875,0.36375,0.364375,0,0.36875,0.374375,0.379375,0.384375,0.38625,0.390625,0.396875,0.403125,0.40875,0.415,0.42125,0.426875,0.433125,0.438125,0.44375,0.45,0.455625,0.46,0.463125,0.466875,0.469375,0.471875,0.4725,0.475,0.478125,0.47875,0.47875,0.476875,0.473125,0.473125,0.470625,0.4675,0,0.465,0.461875,0.458125,0.455,0.4525,0.446875,0.441875,0.43875,0.435,0.429375,0.42625,0.423125,0.416875,0.41125,0.405,0.4,0.398125,0.394375,0.391875,0.3875,0.3825,0.38,0.37625,0.373125,0.37,0.3675,0.365,0.3625,0.359375,0.358125,0.35625,0.353125,0,0.35125,0.345,0.34125,0.33875,0.335625,0.335,0.334375,0.333125,0.330625,0.32875,0.32875,0.32875,0.329375,0.329375,0.329375,0.33,0.33,0.329375,0.329375,0.329375,0.329375,0.329375,0.329375,0.329375,0.329375,0.329375,0.33,0.329375,0.329375,0.32875,0.328125,0.329375,0,0.329375,0.329375,0.329375,0.329375,0.329375,0.329375,0.329375,0.32875,0.32875,0.32875,0.32875,0.329375,0.329375,0.33,0.33,0.329375,0.329375,0.329375,0.329375,0.32875,0.32875,0.329375,0.32875,0.32875,0.329375,0.329375,0.32875,0.32875,0.32875,0.32875,0.32875,0.329375,0,0.329375,0.329375,0.329375,0.32875,0.330625,0.33875,0.3575,0.381875,0.405625,0.429375,0.454375,0.481875,0.508125,0.534375,0.560625,0.588125,0.615,0.641875,0.67,0.696875,0.724375,0.75125,0.776875,0.803125,0.826875,0.85,0.87375,0.8975,0.9175,0.935625,0.95375,0.97125,0,0.988125,1.0025,1.014375,1.025625,1.034375,1.043125,1.05125,1.053125,1.0575,1.059375,1.058125,1.05375,1.046875,1.03625,1.020625,1.005625,0.985625,0.964375,0.93875,0.913125,0.885,0.85625,0.825,0.79,0.754375,0.719375,0.684375,0.649375,0.614375,0.58,0.544375,0.509375,0,0.47625,0.446875,0.416875,0.39,0.36375,0.340625,0.319375,0.301875,0.286875,0.273125,0.26375,0.258125,0.255,0.254375,0.254375,0.255,0.254375,0.25375,0.25125,0.249375,0.24875,0.245,0.241875,0.23875,0.23625,0.23375,0.23125,0.2275,0.22125,0.215625,0.21375,0.20875,0,0.203125,0.196875,0.190625,0.185625,0.18,0.17375,0.168125,0.1625,0.15625,0.150625,0.144375,0.138125,0.131875,0.126875,0.12125,0.115,0.109375,0.103125,0.098125,0.091875,0.085,0.079375,0.07375,0.06875,0.065625,0.061875,0.05625,0.050625,0.048125,0.044375,0.04125,0.038125,0,0.035,0.0325,0.03125,0.03,0.026875,0.025,0.025625,0.025625,0.025,0.025,0.025625,0.02875,0.03125,0.035625,0.03875,0.043125,0.048125,0.05375,0.06,0.066875,0.07625,0.085,0.095,0.103125,0.114375,0.12375,0.131875,0.143125,0.155,0.165625,0.175,0.185,0,0.19625,0.208125,0.219375,0.22875,0.2375,0.24875,0.258125,0.266875,0.275,0.284375,0.293125,0.29875,0.305,0.310625,0.31625,0.318125,0.321875,0.324375,0.326875,0.32875,0.329375,0.33,0.33,0.33,0.329375,0.329375,0.329375,0.329375,0.329375,0.329375,0.33,0.33,0,0.329375,0.33,0.329375,0.33,0.329375,0.329375,0.33,0.329375,0.329375,0.329375,0.33,0.33,0.329375,0.329375,0.329375,0.32875,0.32875,0.329375,0.329375,0.33,0.33,0.329375,0.329375,0.32875,0.32875,0.32875,0.32875,0.329375,0.329375,0.33,0.33,0.33,0,0.329375,0.329375,0.32875,0.32875,0.32875,0.32875,0.32875,0.329375,0.33,0.329375,0.33,0.329375,0.329375,0.329375,0.33,0.329375,0.329375,0.329375,0.329375,0.33,0.329375,0.329375,0.329375,0.32875,0.329375,0.329375,0.329375,0.32875,0.32875,0.33,0.329375,0.329375,0,0.329375,0.32875,0.32875,0.329375,0.329375,0.32875,0.329375,0.329375,0.329375,0.329375,0.328125,0.32875,0.32875,0.32875,0.329375,0.32875,0.32875,0.33,0.329375,0.329375,0.329375,0.329375,0.32875,0.329375,0.329375,0.329375,0.329375,0.33,0.329375,0.329375,0.329375,0.32875,0,0.32875,0.329375,0.329375,0.329375,0.329375,0.33,0.33,0.32875,0.32875,0.32875,0.32875,0.329375,0.329375,0.329375,0.33,0.33,0.329375,0.329375,0.329375,0.32875,0.329375,0.329375,0.32875,0.32875,0.329375,0.329375,0.329375,0.329375,0.32875,0.32875,0.32875,0.32875,0,0.329375,0.33,0.329375,0.32875,0.329375,0.329375,0.329375,0.329375,0.329375,0.329375,0.329375,0.329375,0.329375,0.329375,0.32875,0.329375,0.329375,0.32875,0.329375,0.32875,0.32875,0.329375,0.329375,0.33,0.33,0.329375,0.329375,0.32875,0.32875,0.32875,0.329375,0.329375,0,0.33,0.33,0.329375,0.32875,0.329375,0.32875,0.32875,0.328125,0.32875,0.329375,0.33,0.329375,0.32875,0.32875,0.329375,0.329375,0.32875,0.32875,0.32875,0.329375,0.329375,0.33,0.329375,0.329375,0.329375,0.329375,0.32875,0.32875,0.32875,0.329375,0.329375,0.329375,0,0.33,0.329375,0.329375,0.32875,0.32875,0.329375,0.329375,0.329375,0.329375,0.329375,0.329375,0.329375,0.329375,0.329375,0.32875,0.32875,0.329375,0.329375,0.329375,0.33,0.329375,0.329375,0.329375,0.32875,0.32875,0.32875,0.32875,0.329375,0.329375,0.33,0.33,0.329375,0,0.329375,0.32875,0.32875,0.329375,0.329375,0.32875,0.33,0.33,0.329375,0.329375,0.329375,0.329375,0.329375,0.329375,0.33,0.33,0.33,0.329375,0.33,0.329375,0.32875,0.32875,0.32875,0.32875,0.329375,0.329375,0.329375,0.33,0.33375,0.33875,0.34125,0.345,0,0.35125,0.359375,0.36375,0.36875,0.37375,0.375,0.375,0.37625,0.379375,0.380625,0.380625,0.38,0.380625,0.38125,0.38125,0.38125,0.38125,0.379375,0.375625,0.374375,0.374375,0.3725,0.369375,0.369375,0.368125,0.365,0.361875,0.358125,0.355,0.351875,0.34875,0.345625,0,0.343125,0.33875,0.335625,0.3325,0.33,0.33,0.33,0.329375,0.329375,0.329375,0.329375,0.329375,0.329375,0.329375,0.33,0.33,0.329375,0.329375,0.329375,0.32875,0.329375,0.33,0.33,0.33,0.33,0.329375,0.329375,0.329375,0.329375,0.329375,0.329375,0.329375,0,0.329375,0.33,0.329375,0.33,0.33,0.33,0.33,0.32875,0.3225,0.31125,0.3025,0.29125,0.284375,0.289375,0.30375,0.329375,0.369375,0.41875,0.47125,0.524375,0.576875,0.629375,0.6825,0.735,0.78625,0.828125,0.858125,0.876875,0.888125,0.890625,0.881875,0.8625,0,0.838125,0.80875,0.76875,0.723125,0.671875,0.61875,0.566875,0.514375,0.46125,0.4075,0.35,0.290625,0.240625,0.2125,0.211875,0.23625,0.265625,0.293125,0.316875,0.32875,0.33,0.33,0.329375,0.329375,0.329375,0.329375,0.329375,0.32875,0.329375,0.33,0.33,0.33,0,0.329375,0.32875,0.32875,0.32875,0.329375,0.329375,0.33,0.33,0.33,0.33,0.329375,0.329375,0.329375,0.329375,0.329375,0.329375,0.329375,0.329375,0.329375,0.33,0.329375,0.32875,0.329375,0.329375,0.329375,0.33,0.33,0.331875,0.334375,0.335625,0.3375,0.340625,0,0.3425,0.345625,0.34625,0.34625,0.349375,0.3525,0.3525,0.353125,0.355625,0.35875,0.358125,0.358125,0.36125,0.363125,0.364375,0.368125,0.37375,0.379375,0.384375,0.386875,0.390625,0.39625,0.403125,0.409375,0.415,0.42125,0.4275,0.433125,0.438125,0.44375,0.45,0.455625,0,0.46125,0.463125,0.466875,0.469375,0.473125,0.473125,0.474375,0.478125,0.47875,0.479375,0.476875,0.47375,0.473125,0.47125,0.468125,0.465625,0.4625,0.459375,0.455,0.451875,0.446875,0.44125,0.43875,0.435625,0.430625,0.4275,0.423125,0.4175,0.41125,0.405625,0.4,0.398125,0,0.395,0.3925,0.38875,0.383125,0.380625,0.37625,0.37375,0.37,0.3675,0.365,0.363125,0.36,0.35875,0.35625,0.35375,0.35125,0.34625,0.34125,0.339375,0.335625,0.335,0.335625,0.33375,0.330625,0.329375,0.329375,0.33,0.329375,0.32875,0.329375,0.329375,0.33,0,0.33,0.33,0.329375,0.32875,0.32875,0.329375,0.329375,0.329375,0.329375,0.33,0.33,0.33,0.329375,0.32875,0.32875,0.329375,0.33,0.33,0.33,0.33,0.329375,0.32875,0.329375,0.329375,0.32875,0.32875,0.329375,0.329375,0.329375,0.329375,0.33,0.33,0,0.33,0.329375,0.329375,0.329375,0.329375,0.329375,0.33,0.33,0.329375,0.33,0.329375,0.329375,0.32875,0.32875,0.329375,0.329375,0.32875,0.329375,0.329375,0.33,0.33,0.329375,0.32875,0.329375,0.329375,0.329375,0.329375,0.329375,0.33,0.33,0.329375,0.32875,0,0.329375,0.329375,0.329375,0.329375,0.329375,0.33,0.329375,0.33,0.33,0.329375,0.329375,0.33,0.329375,0.329375,0.329375,0.329375,0.33,0.329375,0.329375,0.329375,0.328125,0.32875,0.329375,0.329375,0.329375,0.329375,0.329375,0.329375,0.33,0.33,0.329375,0.32875,0,0.32875,0.329375,0.329375,0.33,0.33,0.33,0.329375,0.329375,0.329375,0.329375,0.32875,0.32875,0.329375,0.329375,0.33,0.33,0.329375,0.329375,0.329375,0.329375,0.329375,0.329375,0.33,0.33,0.33,0.33,0.33,0.329375,0.329375,0.329375,0.32875,0.32875,0,0.329375,0.33,0.33,0.33,0.329375,0.329375,0.32875,0.329375,0.329375,0.329375,0.329375,0.33,0.331875,0.3375,0.34125,0.34375,0.34875,0.35625,0.3625,0.36625,0.37125,0.374375,0.375625,0.37625,0.37875,0.380625,0.380625,0.38,0.380625,0.38125,0.380625,0.38125,0,0.38125,0.380625,0.376875,0.375,0.374375,0.37375,0.370625,0.369375,0.36875,0.365625,0.36375,0.36,0.356875,0.353125,0.350625,0.3475,0.345,0.339375,0.335625,0.33375,0.330625,0.33,0.329375,0.329375,0.329375,0.329375,0.33,0.33,0.33,0.33,0.33,0.33,0,0.33,0.33,0.33,0.329375,0.329375,0.33,0.329375,0.33,0.33,0.329375,0.329375,0.329375,0.33,0.33,0.32875,0.32875,0.329375,0.33,0.33,0.33,0.329375,0.33,0.33,0.329375,0.325625,0.314375,0.305625,0.295,0.286875,0.2875,0.29875,0.319375,0,0.355625,0.4025,0.454375,0.506875,0.56,0.6125,0.665,0.7175,0.770625,0.815625,0.849375,0.871875,0.885,0.890625,0.88625,0.869375,0.84625,0.819375,0.78375,0.73875,0.68875,0.63625,0.584375,0.53125,0.478125,0.425,0.369375,0.31125,0.255625,0.219375,0.209375,0.226875,0,0.255,0.284375,0.30875,0.325625,0.33,0.33,0.329375,0.329375,0.329375,0.32875,0.329375,0.329375,0.329375,0.33,0.330625,0.33,0.329375,0.329375,0.329375,0.32875,0.32875,0.329375,0.329375,0.329375,0.329375,0.33,0.33,0.329375,0.32875,0.329375,0.329375,0.329375,0,0.329375,0.33,0.33,0.33,0.33,0.329375,0.33,0.329375,0.329375,0.329375,0.329375,0.33125,0.334375,0.334375,0.335625,0.339375,0.34125,0.344375,0.345625,0.34625,0.3475,0.35125,0.3525,0.353125,0.355,0.358125,0.3575,0.358125,0.36,0.363125,0.36375,0.36625,0,0.371875,0.3775,0.3825,0.38625,0.38875,0.394375,0.4,0.406875,0.4125,0.41875,0.425,0.430625,0.43625,0.441875,0.448125,0.45375,0.459375,0.461875,0.465,0.468125,0.471875,0.473125,0.474375,0.478125,0.47875,0.47875,0.478125,0.474375,0.473125,0.4725,0.46875,0.46625,0,0.463125,0.46,0.455625,0.453125,0.44875,0.443125,0.43875,0.436875,0.43125,0.4275,0.425,0.419375,0.41375,0.4075,0.401875,0.398125,0.395625,0.3925,0.39,0.385,0.38125,0.378125,0.375,0.37125,0.36875,0.365625,0.363125,0.360625,0.358125,0.3575,0.354375,0.351875,0,0.348125,0.3425,0.34,0.336875,0.335,0.335,0.334375,0.33125,0.329375,0.329375,0.329375,0.329375,0.329375,0.329375,0.329375,0.33,0.33,0.33,0.33,0.33,0.329375,0.329375,0.329375,0.32875,0.329375,0.329375,0.329375,0.329375,0.329375,0.329375,0.329375,0.33,0,0.329375,0.329375,0.329375,0.329375,0.33,0.33,0.33,0.33,0.329375,0.329375,0.329375,0.329375,0.32875,0.329375,0.33,0.329375,0.329375,0.33,0.329375,0.329375,0.329375,0.329375,0.329375,0.33,0.33,0.329375,0.33,0.329375,0.329375,0.33,0.33,0.329375,0,0.329375,0.33,0.33,0.33,0.33,0.329375,0.329375,0.329375,0.329375,0.329375,0.329375,0.33,0.33,0.33,0.33,0.33,0.329375,0.329375,0.32875,0.32875,0.329375,0.33,0.329375,0.33,0.329375,0.329375,0.329375,0.329375,0.32875,0.32875,0.32875,0.32875,0,0.33,0.33,0.32875,0.329375,0.329375,0.32875,0.32875,0.329375,0.33,0.33,0.33,0.329375,0.329375,0.329375,0.329375,0.329375,0.329375,0.329375,0.32875,0.32875,0.33,0.33,0.33,0.329375,0.329375,0.329375,0.32875,0.32875,0.329375,0.329375,0.33,0.33,0,0.33,0.33,0.329375,0.32875,0.32875,0.32875,0.329375,0.329375,0.329375,0.329375,0.33,0.329375,0.329375,0.329375,0.329375,0.32875,0.329375,0.329375,0.329375,0.33,0.33,0.33,0.329375,0.32875,0.32875,0.32875,0.32875,0.329375,0.330625,0.335,0.339375,0.341875,0,0.346875,0.35375,0.36125,0.364375,0.370625,0.374375,0.375,0.375625,0.3775,0.380625,0.380625,0.38,0.38,0.380625,0.38125,0.38125,0.381875,0.381875,0.37875,0.375,0.374375,0.374375,0.371875,0.37,0.369375,0.3675,0.364375,0.360625,0.358125,0.355,0.351875,0.34875,0,0.345625,0.341875,0.336875,0.334375,0.33125,0.329375,0.329375,0.329375,0.329375,0.329375,0.329375,0.329375,0.33,0.329375,0.329375,0.33,0.329375,0.329375,0.329375,0.33,0.329375,0.33,0.329375,0.329375,0.33,0.33,0.33,0.33,0.33,0.329375,0.329375,0.329375,0,0.33,0.33,0.33,0.33,0.33,0.33,0.329375,0.329375,0.328125,0.31875,0.308125,0.29875,0.288125,0.285625,0.29375,0.31125,0.341875,0.38625,0.436875,0.489375,0.5425,0.595,0.6475,0.7,0.753125,0.8025,0.84,0.86625,0.88125,0.89,0.88875,0.87625,0,0.85375,0.82875,0.796875,0.755,0.70625,0.65375,0.60125,0.548125,0.495625,0.44375,0.388125,0.33,0.273125,0.22875,0.209375,0.21875,0.24625,0.275625,0.301875,0.32125,0.329375,0.33,0.33,0.33,0.33,0.329375,0.329375,0.32875,0.329375,0.329375,0.329375,0.33,0,0.33,0.33,0.33,0.329375,0.329375,0.329375,0.329375,0.329375,0.33,0.33,0.33,0.33,0.329375,0.33,0.33,0.329375,0.329375,0.33,0.33,0.33,0.33,0.329375,0.33,0.329375,0.329375,0.329375,0.329375,0.33,0.333125,0.335,0.33625,0.339375,0,0.341875,0.344375,0.34625,0.34625,0.34625,0.350625,0.3525,0.3525,0.35375,0.3575,0.35875,0.358125,0.359375,0.3625,0.36375,0.365,0.369375,0.375625,0.381875,0.38625,0.38875,0.393125,0.39875,0.404375,0.410625,0.4175,0.423125,0.42875,0.434375,0.44,0.44625,0.451875,0,0.458125,0.46125,0.464375,0.4675,0.470625,0.473125,0.473125,0.47625,0.479375,0.47875,0.478125,0.475,0.4725,0.4725,0.47,0.4675,0.464375,0.46125,0.4575,0.455,0.450625,0.445,0.44,0.438125,0.43375,0.428125,0.42625,0.4225,0.41625,0.409375,0.40375,0.39875,0,0.396875,0.393125,0.39125,0.38625,0.383125,0.38,0.37625,0.373125,0.37,0.366875,0.36375,0.361875,0.35875,0.358125,0.355625,0.353125,0.349375,0.34375,0.340625,0.3375,0.335,0.334375,0.335,0.3325,0.33,0.329375,0.329375,0.32875,0.32875,0.32875,0.32875,0.33,0,0.33,0.33,0.33,0.33,0.33,0.329375,0.329375,0.329375,0.329375,0.329375,0.329375,0.33,0.33,0.329375,0.33,0.32875,0.32875,0.32875,0.32875,0.329375,0.33,0.33,0.33,0.329375,0.329375,0.329375,0.329375,0.32875,0.329375,0.329375,0.329375,0.329375,0,0.329375,0.329375,0.329375,0.329375,0.32875,0.329375,0.329375,0.329375,0.329375,0.33,0.330625,0.329375,0.329375,0.329375,0.329375,0.32875,0.32875,0.329375,0.329375,0.33,0.33,0.33,0.329375,0.329375,0.329375,0.329375,0.32875,0.329375,0.33,0.33,0.329375,0.33,0,0.330625,0.329375,0.329375,0.32875,0.32875,0.32875,0.329375,0.329375,0.329375,0.329375,0.32875,0.32875,0.329375,0.329375,0.32875,0.32875,0.32875,0.32875,0.329375,0.33,0.32875,0.329375,0.329375,0.32875,0.32875,0.329375,0.33,0.329375,0.33,0.329375,0.32875,0.329375,0,0.329375,0.32875,0.32875,0.329375,0.33,0.33,0.329375,0.33,0.33,0.329375,0.329375,0.329375,0.32875,0.329375,0.32875,0.32875,0.329375,0.329375,0.329375,0.329375,0.329375,0.32875,0.32875,0.329375,0.329375,0.329375,0.329375,0.329375,0.329375,0.329375,0.32875,0.329375,0,0.32875,0.329375,0.329375,0.329375,0.33,0.33,0.33,0.33,0.329375,0.32875,0.329375,0.329375,0.329375,0.333125,0.33875,0.34125,0.345,0.35125,0.359375,0.36375,0.368125,0.373125,0.374375,0.375625,0.37625,0.38,0.38125,0.38125,0.380625,0.380625,0.38125,0.38125,0,0.38125,0.381875,0.380625,0.37625,0.375,0.375,0.373125,0.37,0.369375,0.368125,0.365,0.3625,0.35875,0.355625,0.353125,0.35,0.34625,0.343125,0.338125,0.335,0.331875,0.33,0.33,0.329375,0.329375,0.329375,0.33,0.329375,0.33,0.329375,0.329375,0.33,0,0.329375,0.33,0.329375,0.329375,0.32875,0.329375,0.32875,0.329375,0.329375,0.33,0.33,0.329375,0.33,0.329375,0.32875,0.32875,0.32875,0.32875,0.329375,0.329375,0.33,0.33,0.33,0.32875,0.32875,0.3225,0.310625,0.30125,0.290625,0.284375,0.289375,0.304375,0,0.330625,0.37,0.41875,0.471875,0.525,0.5775,0.63,0.6825,0.735625,0.7875,0.82875,0.85875,0.8775,0.88875,0.890625,0.88125,0.861875,0.8375,0.808125,0.769375,0.723125,0.67125,0.61875,0.56625,0.5125,0.460625,0.40625,0.349375,0.29125,0.240625,0.2125,0.2125,0,0.23625,0.265625,0.293125,0.315625,0.3275,0.33,0.33,0.33,0.33,0.329375,0.329375,0.32875,0.329375,0.32875,0.32875,0.329375,0.329375,0.329375,0.33,0.329375,0.33,0.33,0.329375,0.329375,0.329375,0.33,0.33,0.33,0.33,0.33,0.329375,0.329375,0,0.329375,0.329375,0.329375,0.33,0.329375,0.329375,0.33,0.329375,0.32875,0.33,0.329375,0.329375,0.33125,0.33375,0.335,0.3375,0.340625,0.3425,0.345625,0.34625,0.345625,0.34875,0.351875,0.353125,0.353125,0.35625,0.358125,0.35875,0.35875,0.361875,0.36375,0.364375,0,0.368125,0.37375,0.379375,0.385,0.3875,0.39125,0.39625,0.401875,0.408125,0.414375,0.420625,0.426875,0.4325,0.43875,0.444375,0.450625,0.455625,0.46,0.461875,0.46625,0.46875,0.4725,0.47375,0.475625,0.478125,0.479375,0.479375,0.476875,0.473125,0.47375,0.47125,0.468125,0,0.465625,0.4625,0.459375,0.455625,0.4525,0.44625,0.44125,0.438125,0.435,0.43,0.4275,0.42375,0.418125,0.41125,0.405,0.399375,0.396875,0.39375,0.39125,0.3875,0.3825,0.38,0.3775,0.374375,0.370625,0.3675,0.364375,0.361875,0.35875,0.358125,0.35625,0.353125,0,0.350625,0.34625,0.341875,0.33875,0.335,0.334375,0.335,0.333125,0.33,0.33,0.329375,0.329375,0.329375,0.32875,0.32875,0.32875,0.329375,0.33,0.329375,0.329375,0.329375,0.329375,0.32875,0.32875,0.329375,0.32875,0.32875,0.329375,0.329375,0.329375,0.329375,0.329375,0,0.329375,0.32875,0.329375,0.329375,0.33,0.33,0.329375,0.329375,0.329375,0.329375,0.32875,0.328125,0.329375,0.32875,0.329375,0.329375,0.329375,0.329375,0.329375,0.33,0.329375,0.32875,0.328125,0.32875,0.329375,0.329375,0.32875,0.32875,0.329375,0.329375,0.329375,0.32875,0,0.32875,0.329375,0.33,0.33,0.329375,0.329375,0.329375,0.329375,0.329375,0.329375,0.32875,0.32875,0.329375,0.33,0.330625,0.33,0.329375,0.33,0.329375,0.329375,0.32875,0.329375,0.329375,0.329375,0.33,0.33,0.329375,0.329375,0.329375,0.329375,0.329375,0.32875,0,0.32875,0.329375,0.329375,0.329375,0.33,0.33,0.329375,0.32875,0.329375,0.32875,0.329375,0.329375,0.33,0.329375,0.329375,0.329375,0.329375,0.329375,0.32875,0.32875,0.32875,0.32875,0.32875,0.329375,0.329375,0.329375,0.33,0.329375,0.32875,0.329375,0.32875,0.32875,0,0.329375,0.329375,0.32875,0.32875,0.32875,0.32875,0.32875,0.329375,0.329375,0.329375,0.329375,0.33,0.33,0.329375,0.329375,0.329375,0.329375,0.329375,0.329375,0.329375,0.329375,0.329375,0.33,0.33,0.329375,0.329375,0.32875,0.32875,0.32875,0.331875,0.3375,0.34125,0,0.34375,0.349375,0.3575,0.363125,0.36625,0.37125,0.37375,0.375,0.375625,0.37875,0.38125,0.38125,0.38,0.380625,0.380625,0.38125,0.38125,0.38125,0.380625,0.3775,0.375,0.375,0.37375,0.370625,0.369375,0.368125,0.365,0.363125,0.36,0.356875,0.353125,0.35125,0,0.3475,0.345,0.34,0.335625,0.333125,0.33,0.33,0.33,0.33,0.33,0.329375,0.32875,0.329375,0.328125,0.32875,0.329375,0.329375,0.33,0.330625,0.33,0.329375,0.32875,0.32875,0.32875,0.329375,0.329375,0.329375,0.329375,0.329375,0.329375,0.329375,0.329375,0,0.32875,0.329375,0.329375,0.329375,0.33,0.33,0.33,0.33,0.329375,0.32625,0.315,0.305,0.29375,0.285,0.286875,0.29875,0.320625,0.35625,0.403125,0.455,0.5075,0.56,0.6125,0.665625,0.71875,0.770625,0.81625,0.85,0.871875,0.885625,0.890625,0.885,0,0.868125,0.84625,0.81875,0.783125,0.73875,0.68875,0.63625,0.583125,0.530625,0.4775,0.42375,0.3675,0.31,0.254375,0.218125,0.20875,0.2275,0.256875,0.285,0.308125,0.325,0.329375,0.329375,0.33,0.329375,0.329375,0.329375,0.329375,0.329375,0.329375,0.329375,0.329375,0,0.329375,0.33,0.33,0.329375,0.329375,0.329375,0.329375,0.329375,0.329375,0.329375,0.329375,0.33,0.329375,0.33,0.33,0.329375,0.32875,0.32875,0.329375,0.329375,0.33,0.329375,0.33,0.33,0.329375,0.329375,0.329375,0.329375,0.330625,0.333125,0.335,0.33625,0,0.339375,0.341875,0.345,0.345625,0.34625,0.348125,0.35125,0.351875,0.3525,0.355,0.358125,0.358125,0.35875,0.360625,0.363125,0.363125,0.36625,0.37125,0.3775,0.383125,0.386875,0.39,0.395625,0.400625,0.406875,0.4125,0.41875,0.425,0.430625,0.43625,0.4425,0.448125,0,0.45375,0.459375,0.461875,0.465625,0.468125,0.47125,0.47375,0.47375,0.4775,0.479375,0.479375,0.47875,0.475,0.473125,0.471875,0.46875,0.46625,0.4625,0.460625,0.45625,0.45375,0.44875,0.443125,0.43875,0.43625,0.43125,0.4275,0.425,0.42,0.41375,0.4075,0.401875,0,0.398125,0.395625,0.3925,0.389375,0.385,0.38125,0.378125,0.375,0.371875,0.36875,0.365625,0.3625,0.359375,0.358125,0.3575,0.354375,0.351875,0.3475,0.343125,0.34,0.33625,0.334375,0.334375,0.33375,0.330625,0.33,0.329375,0.329375,0.329375,0.32875,0.329375,0.329375,0,0.329375,0.32875,0.32875,0.329375,0.329375,0.33,0.33,0.329375,0.329375,0.32875,0.329375,0.329375,0.329375,0.329375,0.33,0.33,0.329375,0.329375,0.329375,0.329375,0.32875,0.329375,0.329375,0.329375,0.33,0.33,0.33,0.329375,0.32875,0.32875,0.329375,0.329375,0,0.329375,0.33,0.33,0.33,0.33,0.33,0.329375,0.329375,0.329375,0.329375,0.329375,0.33,0.33,0.329375,0.329375,0.329375,0.329375,0.32875,0.32875,0.329375,0.33,0.329375,0.33,0.329375,0.329375,0.32875,0.329375,0.329375,0.32875,0.32875,0.33,0.329375,0,0.33,0.33,0.33,0.33,0.329375,0.329375,0.32875,0.32875,0.329375,0.329375,0.329375,0.33,0.329375,0.329375,0.329375,0.329375,0.329375,0.32875,0.32875,0.329375,0.33,0.33,0.329375,0.329375,0.329375,0.329375,0.329375,0.329375,0.329375,0.33,0.33,0.33,0,0.329375,0.329375,0.32875,0.329375,0.33,0.33,0.329375,0.329375,0.33,0.329375,0.329375,0.329375,0.329375,0.329375,0.329375,0.329375,0.32875,0.329375,0.329375,0.329375,0.329375,0.329375,0.329375,0.32875,0.329375,0.329375,0.33,0.329375,0.33,0.33,0.33,0.32875,0,0.32875,0.32875,0.328125,0.32875,0.329375,0.329375,0.33,0.33,0.33,0.329375,0.32875,0.32875,0.32875,0.330625,0.335,0.34,0.3425,0.3475,0.354375,0.36125,0.365,0.37,0.37375,0.375,0.375625,0.376875,0.380625,0.381875,0.38125,0.38125,0.380625,0.380625,0,0.380625,0.380625,0.38125,0.378125,0.375,0.375,0.375,0.3725,0.369375,0.369375,0.36625,0.363125,0.360625,0.3575,0.354375,0.351875,0.34875,0.345625,0.34125,0.33625,0.33375,0.330625,0.329375,0.329375,0.329375,0.329375,0.33,0.33,0.329375,0.32875,0.329375,0.329375,0,0.33,0.33,0.33,0.33,0.33,0.33,0.33,0.329375,0.32875,0.33,0.329375,0.33,0.33,0.33,0.32875,0.329375,0.329375,0.329375,0.329375,0.32875,0.329375,0.329375,0.33,0.329375,0.329375,0.3275,0.318125,0.3075,0.298125,0.2875,0.285,0.294375,0,0.311875,0.343125,0.386875,0.438125,0.49,0.5425,0.595625,0.648125,0.700625,0.75375,0.8025,0.840625,0.86625,0.8825,0.890625,0.888125,0.875,0.853125,0.828125,0.795625,0.75375,0.705625,0.65375,0.600625,0.5475,0.495,0.44125,0.38625,0.328125,0.27125,0.2275,0.209375,0,0.22,0.246875,0.276875,0.3025,0.32125,0.32875,0.329375,0.33,0.33,0.33,0.33,0.33,0.329375,0.329375,0.329375,0.329375,0.329375,0.33,0.33,0.329375,0.33,0.33,0.329375,0.329375,0.329375,0.329375,0.329375,0.33,0.33,0.33,0.329375,0.329375,0,0.32875,0.32875,0.329375,0.329375,0.329375,0.329375,0.33,0.33,0.33,0.329375,0.329375,0.329375,0.329375,0.331875,0.335,0.335625,0.33875,0.340625,0.344375,0.34625,0.34625,0.346875,0.35,0.351875,0.351875,0.353125,0.356875,0.35875,0.35875,0.36,0.3625,0.36375,0,0.364375,0.369375,0.375625,0.38125,0.385625,0.388125,0.39375,0.39875,0.405,0.41125,0.416875,0.4225,0.42875,0.435,0.440625,0.44625,0.4525,0.458125,0.46125,0.46375,0.4675,0.47,0.4725,0.473125,0.47625,0.479375,0.479375,0.47875,0.47625,0.47375,0.4725,0.47,0,0.466875,0.46375,0.460625,0.4575,0.455,0.450625,0.445,0.44,0.4375,0.433125,0.428125,0.42625,0.421875,0.415,0.41,0.40375,0.39875,0.396875,0.393125,0.390625,0.385625,0.381875,0.38,0.37625,0.373125,0.37,0.366875,0.364375,0.360625,0.3575,0.3575,0.35625,0,0.353125,0.35,0.345,0.34125,0.338125,0.335,0.335,0.334375,0.33125,0.329375,0.329375,0.329375,0.33,0.33,0.329375,0.32875,0.32875,0.32875,0.329375,0.329375,0.33,0.33,0.33,0.33,0.33,0.329375,0.32875,0.329375,0.329375,0.329375,0.329375,0.329375,0,0.33,0.33,0.329375,0.329375,0.329375,0.32875,0.32875,0.329375,0.329375,0.33,0.33,0.329375,0.33,0.329375,0.329375,0.32875,0.329375,0.329375,0.329375,0.329375,0.33,0.33,0.329375,0.32875,0.32875,0.329375,0.329375,0.329375,0.329375,0.33,0.33,0.33,0,0.329375,0.32875,0.329375,0.32875,0.329375,0.329375,0.329375,0.33,0.33,0.329375,0.329375,0.329375,0.329375,0.32875,0.32875,0.329375,0.329375,0.329375,0.329375,0.329375,0.329375,0.329375,0.329375,0.329375,0.329375,0.329375,0.33,0.329375,0.33,0.33,0.33,0.329375,0,0.32875,0.32875,0.329375,0.329375,0.329375,0.33,0.33,0.33,0.33,0.329375,0.32875,0.32875,0.329375,0.329375,0.33,0.33,0.329375,0.33,0.33,0.329375,0.329375,0.329375,0.329375,0.33,0.33,0.33,0.329375,0.329375,0.33,0.329375,0.32875,0.329375,0,0.32875,0.329375,0.329375,0.33,0.33,0.33,0.329375,0.32875,0.32875,0.329375,0.33,0.33,0.33,0.330625,0.330625,0.329375,0.329375,0.329375,0.329375,0.329375,0.32875,0.329375,0.329375,0.329375,0.329375,0.329375,0.329375,0.329375,0.329375,0.33,0.333125,0.33875,0,0.34125,0.345625,0.351875,0.36,0.364375,0.36875,0.373125,0.375,0.375,0.375625,0.38,0.380625,0.380625,0.380625,0.380625,0.380625,0.380625,0.380625,0.38125,0.379375,0.375625,0.375,0.374375,0.37375,0.370625,0.36875,0.3675,0.364375,0.361875,0.3575,0.355,0.353125,0,0.349375,0.34625,0.34375,0.338125,0.334375,0.331875,0.329375,0.32875,0.32875,0.329375,0.33,0.33,0.329375,0.32875,0.329375,0.329375,0.32875,0.32875,0.329375,0.329375,0.33,0.33,0.329375,0.32875,0.32875,0.32875,0.329375,0.329375,0.32875,0.329375,0.329375,0.32875,0,0.329375,0.329375,0.329375,0.329375,0.329375,0.32875,0.33,0.33,0.329375,0.329375,0.3225,0.310625,0.300625,0.290625,0.28375,0.289375,0.304375,0.330625,0.371875,0.42125,0.4725,0.525625,0.578125,0.63,0.6825,0.73625,0.7875,0.82875,0.85875,0.876875,0.888125,0.89,0,0.880625,0.860625,0.836875,0.8075,0.76875,0.72125,0.67,0.618125,0.565625,0.5125,0.459375,0.405,0.346875,0.289375,0.239375,0.2125,0.213125,0.236875,0.26625,0.29375,0.315625,0.3275,0.32875,0.329375,0.329375,0.33,0.329375,0.33,0.33,0.329375,0.32875,0.32875,0,0.329375,0.32875,0.32875,0.329375,0.32875,0.33,0.329375,0.329375,0.329375,0.329375,0.329375,0.329375,0.329375,0.33,0.33,0.329375,0.33,0.33,0.32875,0.32875,0.329375,0.329375,0.33,0.33,0.33,0.33,0.329375,0.33,0.33,0.33125,0.334375,0.335,0,0.3375,0.340625,0.343125,0.34625,0.346875,0.346875,0.34875,0.35125,0.351875,0.3525,0.35625,0.35875,0.358125,0.35875,0.3625,0.364375,0.364375,0.368125,0.373125,0.379375,0.384375,0.386875,0.39125,0.396875,0.403125,0.40875,0.414375,0.420625,0.426875,0.4325,0.438125,0.444375,0,0.45,0.45625,0.460625,0.463125,0.465625,0.46875,0.4725,0.4725,0.474375,0.478125,0.479375,0.479375,0.476875,0.47375,0.473125,0.47125,0.4675,0.465,0.461875,0.459375,0.455625,0.4525,0.446875,0.441875,0.438125,0.434375,0.429375,0.42625,0.423125,0.416875,0.411875,0.40625,0,0.400625,0.398125,0.394375,0.39125,0.3875,0.3825,0.380625,0.3775,0.374375,0.370625,0.368125,0.365,0.3625,0.35875,0.3575,0.35625,0.353125,0.350625,0.34625,0.341875,0.339375,0.335625,0.334375,0.334375,0.333125,0.33,0.329375,0.329375,0.33,0.33,0.329375,0.329375,0,0.33,0.329375,0.32875,0.32875,0.329375,0.329375,0.329375,0.33,0.329375,0.329375,0.32875,0.329375,0.329375,0.329375,0.32875,0.329375,0.32875,0.329375,0.33,0.329375,0.329375,0.329375,0.329375,0.329375,0.32875,0.329375,0.33,0.329375,0.329375,0.33,0.329375,0.329375,0,0.329375,0.32875,0.329375,0.329375,0.329375,0.329375,0.329375,0.329375,0.32875,0.329375,0.32875,0.329375,0.33,0.33,0.33,0.33,0.33,0.33,0.329375,0.32875,0.32875,0.329375,0.32875,0.329375,0.329375,0.329375,0.329375,0.329375,0.329375,0.329375,0.329375,0.32875,0,0.329375,0.329375,0.329375,0.329375,0.329375,0.329375,0.329375,0.329375,0.329375,0.329375,0.329375,0.329375,0.329375,0.329375,0.329375,0.329375,0.329375,0.33,0.33,0.329375,0.329375,0.329375,0.329375,0.33,0.329375,0.329375,0.329375,0.329375,0.329375,0.329375,0.33,0.33,0,0.33,0.33,0.33,0.329375,0.329375,0.32875,0.32875,0.329375,0.329375,0.33,0.33,0.329375,0.33,0.33,0.329375,0.329375,0.32875,0.32875,0.329375,0.329375,0.33,0.33,0.33,0.329375,0.32875,0.329375,0.329375,0.329375,0.33,0.33,0.33,0.33,0,0.33,0.329375,0.329375,0.33,0.329375,0.329375,0.33,0.33,0.33,0.33,0.33,0.33,0.33,0.33,0.33125,0.3375,0.341875,0.344375,0.35,0.358125,0.36375,0.366875,0.3725,0.374375,0.375,0.37625,0.37875,0.380625,0.38125,0.381875,0.381875,0.38125,0,0.38125,0.380625,0.380625,0.38,0.376875,0.375625,0.375,0.374375,0.371875,0.369375,0.36875,0.365625,0.363125,0.35875,0.35625,0.35375,0.351875,0.3475,0.345,0.34,0.335625,0.333125,0.33,0.329375,0.329375,0.33,0.33,0.33,0.33,0.33,0.33,0.329375,0,0.329375,0.329375,0.33,0.329375,0.329375,0.330625,0.33,0.33,0.33,0.329375,0.33,0.33,0.33,0.33,0.330625,0.33,0.33,0.33,0.33,0.329375,0.32875,0.329375,0.329375,0.329375,0.33,0.329375,0.325625,0.314375,0.305,0.294375,0.285,0.286875,0,0.298125,0.320625,0.356875,0.40375,0.45625,0.50875,0.56125,0.61375,0.66625,0.71875,0.77125,0.81625,0.85,0.8725,0.88625,0.89125,0.885625,0.868125,0.844375,0.8175,0.7825,0.7375,0.6875,0.635625,0.583125,0.530625,0.476875,0.423125,0.366875,0.308125,0.253125,0.218125,0,0.209375,0.22875,0.2575,0.285625,0.31,0.325625,0.329375,0.329375,0.329375,0.329375,0.329375,0.33,0.329375,0.33,0.33,0.329375,0.32875,0.329375,0.329375,0.329375,0.329375,0.33,0.33,0.330625,0.33,0.329375,0.329375,0.329375,0.329375,0.329375,0.33,0.33,0,0.33,0.329375,0.33,0.33,0.329375,0.329375,0.33,0.329375,0.329375,0.329375,0.33,0.33,0.329375,0.330625,0.333125,0.334375,0.335625,0.340625,0.3425,0.34625,0.3475,0.3475,0.34875,0.351875,0.3525,0.3525,0.355,0.35875,0.358125,0.35875,0.36125,0.364375,0,0.364375,0.36625,0.371875,0.378125,0.383125,0.38625,0.39,0.395625,0.40125,0.4075,0.413125,0.419375,0.425,0.430625,0.43625,0.4425,0.44875,0.454375,0.46,0.4625,0.465625,0.468125,0.47125,0.4725,0.474375,0.478125,0.479375,0.479375,0.478125,0.474375,0.473125,0.47125,0,0.468125,0.46625,0.461875,0.46,0.45625,0.45375,0.449375,0.44375,0.43875,0.43625,0.43125,0.426875,0.424375,0.419375,0.41375,0.408125,0.4025,0.39875,0.39625,0.3925,0.38875,0.383125,0.38125,0.378125,0.375,0.371875,0.369375,0.36625,0.363125,0.359375,0.3575,0.3575,0,0.35375,0.351875,0.348125,0.34375,0.340625,0.336875,0.335,0.335,0.33375,0.330625,0.329375,0.329375,0.329375,0.329375,0.329375,0.33,0.33,0.33,0.32875,0.329375,0.329375,0.33,0.33,0.33,0.33,0.33,0.329375,0.329375,0.329375,0.32875,0.32875,0.329375,0,0.33,0.33,0.33,0.33,0.330625,0.33,0.329375,0.329375,0.329375,0.33,0.329375,0.329375,0.329375,0.33,0.329375,0.32875,0.32875,0.329375,0.329375,0.329375,0.329375,0.329375,0.33,0.330625,0.33,0.33,0.329375,0.32875,0.329375,0.329375,0.32875,0.33,0,0.33,0.33,0.33,0.329375,0.329375,0.33,0.329375,0.33,0.33,0.329375,0.33,0.33,0.33,0.33,0.32875,0.32875,0.329375,0.33,0.33,0.33,0.33,0.33,0.33,0.33,0.33,0.32875,0.32875,0.329375,0.329375,0.33,0.33,0.33,0,0.329375,0.33,0.329375,0.329375,0.329375,0.329375,0.329375,0.329375,0.329375,0.33,0.33,0.329375,0.33,0.33,0.329375,0.329375,0.33,0.33,0.33,0.329375,0.329375,0.329375,0.329375,0.33,0.329375,0.33,0.33,0.33,0.330625,0.330625,0.33,0.33,0,0.329375,0.329375,0.32875,0.32875,0.329375,0.33,0.33,0.33,0.33,0.329375,0.329375,0.32875,0.329375,0.329375,0.329375,0.33,0.329375,0.33,0.33,0.329375,0.32875,0.32875,0.32875,0.329375,0.329375,0.329375,0.329375,0.329375,0.32875,0.329375,0.33,0.335,0,0.339375,0.3425,0.3475,0.354375,0.361875,0.365625,0.370625,0.374375,0.375,0.375,0.3775,0.380625,0.380625,0.38125,0.380625,0.380625,0.380625,0.38125,0.38125,0.380625,0.3775,0.375,0.375,0.374375,0.3725,0.37,0.369375,0.36625,0.363125,0.36,0.3575,0.35375,0,0.35125,0.348125,0.34625,0.341875,0.336875,0.33375,0.33,0.32875,0.32875,0.329375,0.329375,0.329375,0.33,0.329375,0.329375,0.329375,0.329375,0.329375,0.32875,0.329375,0.329375,0.33,0.33,0.33,0.33,0.329375,0.329375,0.32875,0.32875,0.32875,0.329375,0.33,0,0.330625,0.329375,0.329375,0.329375,0.32875,0.32875,0.329375,0.329375,0.329375,0.329375,0.32875,0.31875,0.308125,0.298125,0.286875,0.285,0.293125,0.31125,0.343125,0.3875,0.439375,0.49125,0.54375,0.596875,0.649375,0.70125,0.754375,0.803125,0.840625,0.8675,0.8825,0.890625,0,0.88875,0.874375,0.8525,0.8275,0.794375,0.7525,0.704375,0.6525,0.6,0.546875,0.494375,0.44125,0.385625,0.326875,0.27,0.2275,0.20875,0.219375,0.2475,0.276875,0.3025,0.321875,0.32875,0.32875,0.32875,0.329375,0.329375,0.33,0.329375,0.33,0.329375,0.329375,0,0.33,0.329375,0.329375,0.32875,0.329375,0.329375,0.329375,0.33,0.33,0.329375,0.329375,0.329375,0.329375,0.329375,0.329375,0.33,0.33,0.33,0.33,0.329375,0.32875,0.329375,0.329375,0.329375,0.329375,0.33,0.33,0.33,0.33,0.33,0.3325,0.334375,0,0.335,0.338125,0.34125,0.345,0.3475,0.346875,0.346875,0.35,0.351875,0.351875,0.353125,0.3575,0.35875,0.35875,0.36,0.3625,0.36375,0.365,0.369375,0.375,0.380625,0.385,0.38875,0.394375,0.399375,0.405,0.41125,0.416875,0.4225,0.42875,0.434375,0.44,0,0.44625,0.4525,0.458125,0.461875,0.464375,0.466875,0.470625,0.473125,0.47375,0.47625,0.47875,0.479375,0.47875,0.47625,0.473125,0.473125,0.470625,0.4675,0.46375,0.46125,0.4575,0.455,0.45125,0.445625,0.44,0.4375,0.433125,0.428125,0.425625,0.42125,0.415,0.409375,0,0.40375,0.399375,0.3975,0.39375,0.39125,0.385625,0.38125,0.379375,0.375625,0.373125,0.37,0.3675,0.364375,0.36125,0.358125,0.3575,0.354375,0.351875,0.349375,0.344375,0.34125,0.33875,0.335625,0.335,0.334375,0.331875,0.329375,0.32875,0.329375,0.33,0.329375,0.329375,0,0.329375,0.329375,0.329375,0.329375,0.32875,0.329375,0.329375,0.329375,0.329375,0.329375,0.329375,0.329375,0.329375,0.329375,0.32875,0.329375,0.329375,0.33,0.329375,0.329375,0.329375,0.329375,0.33,0.329375,0.329375,0.329375,0.329375,0.329375,0.329375,0.329375,0.33,0.33,0,0.329375,0.329375,0.32875,0.329375,0.329375,0.33,0.33,0.33,0.33,0.329375,0.329375,0.329375,0.32875,0.329375,0.329375,0.329375,0.33,0.329375,0.329375,0.329375,0.329375,0.329375,0.329375,0.32875,0.329375,0.329375,0.33,0.33,0.33,0.33,0.329375,0.329375,0,0.32875,0.32875,0.329375,0.329375,0.329375,0.329375,0.33,0.329375,0.32875,0.329375,0.32875,0.329375,0.329375,0.329375,0.329375,0.330625,0.330625,0.329375,0.329375,0.329375,0.329375,0.32875,0.329375,0.329375,0.329375,0.33,0.33,0.33,0.329375,0.32875,0.32875,0.329375,0,0.329375,0.33,0.329375,0.329375,0.33,0.33,0.32875,0.328125,0.32875,0.32875,0.32875,0.329375,0.33,0.33,0.329375,0.329375,0.329375,0.32875,0.32875,0.329375,0.32875,0.32875,0.329375,0.329375,0.329375,0.33,0.329375,0.32875,0.32875,0.329375,0.329375,0.329375,0,0.329375,0.33,0.33,0.329375,0.329375,0.329375,0.32875,0.329375,0.329375,0.329375,0.329375,0.329375,0.329375,0.329375,0.329375,0.333125,0.33875,0.34125,0.345625,0.35125,0.36,0.364375,0.36875,0.373125,0.375,0.375,0.375625,0.379375,0.380625,0.380625,0.380625,0.38,0,0.380625,0.38125,0.38125,0.38125,0.378125,0.375,0.375,0.374375,0.3725,0.370625,0.37,0.366875,0.364375,0.36125,0.3575,0.355,0.351875,0.349375,0.346875,0.34375,0.338125,0.335,0.3325,0.33,0.329375,0.32875,0.32875,0.329375,0.329375,0.329375,0.33,0.33,0,0.33,0.32875,0.328125,0.32875,0.329375,0.32875,0.329375,0.33,0.329375,0.33,0.33,0.329375,0.329375,0.32875,0.329375,0.329375,0.33,0.33,0.33,0.329375,0.32875,0.32875,0.329375,0.32875,0.32875,0.32875,0.32875,0.3225,0.311875,0.30125,0.29,0.285,0,0.29,0.30375,0.33125,0.371875,0.421875,0.47375,0.52625,0.579375,0.63125,0.684375,0.7375,0.78875,0.83,0.85875,0.8775,0.889375,0.890625,0.880625,0.860625,0.83625,0.80625,0.7675,0.720625,0.669375,0.616875,0.564375,0.511875,0.45875,0.40375,0.34625,0.288125,0.238125,0,0.211875,0.213125,0.2375,0.2675,0.294375,0.31625,0.3275,0.32875,0.32875,0.32875,0.32875,0.329375,0.33,0.33,0.33,0.329375,0.329375,0.329375,0.329375,0.33,0.329375,0.329375,0.329375,0.329375,0.329375,0.329375,0.329375,0.329375,0.329375,0.329375,0.329375,0.329375,0,0.329375,0.329375,0.329375,0.33,0.33,0.329375,0.329375,0.329375,0.329375,0.329375,0.329375,0.33,0.33,0.33,0.331875,0.334375,0.335,0.336875,0.34,0.3425,0.345625,0.346875,0.346875,0.349375,0.351875,0.351875,0.351875,0.355,0.356875,0.3575,0.35875,0.361875,0,0.364375,0.365,0.368125,0.373125,0.38,0.384375,0.386875,0.390625,0.396875,0.403125,0.40875,0.414375,0.42125,0.4275,0.4325,0.4375,0.44375,0.449375,0.45625,0.46125,0.46375,0.466875,0.468125,0.47125,0.473125,0.474375,0.4775,0.47875,0.479375,0.476875,0.473125,0.473125,0,0.470625,0.468125,0.465625,0.46125,0.45875,0.455,0.4525,0.4475,0.441875,0.43875,0.435,0.429375,0.42625,0.4225,0.416875,0.41125,0.405,0.4,0.3975,0.395,0.39125,0.3875,0.383125,0.38,0.376875,0.374375,0.370625,0.368125,0.365625,0.3625,0.35875,0.358125,0,0.35625,0.353125,0.35,0.345625,0.34125,0.339375,0.33625,0.335625,0.335,0.333125,0.33,0.32875,0.32875,0.329375,0.32875,0.329375,0.329375,0.33,0.329375,0.33,0.329375,0.32875,0.329375,0.329375,0.32875,0.329375,0.33,0.330625,0.33,0.329375,0.329375,0.329375,0,0.32875,0.329375,0.33,0.33,0.33,0.33,0.329375,0.32875,0.32875,0.32875,0.32875,0.329375,0.32875,0.329375,0.329375,0.33,0.329375,0.329375,0.329375,0.329375,0.329375,0.329375,0.329375,0.329375,0.33,0.33,0.33,0.329375,0.329375,0.329375,0.329375,0.33,0,0.33,0.33,0.33,0.33,0.329375,0.32875,0.33,0.338125,0.358125,0.381875,0.405625,0.429375,0.454375,0.48125,0.5075,0.53375,0.56,0.588125,0.615625,0.641875,0.670625,0.6975,0.724375,0.750625,0.77625,0.803125,0.826875,0.85,0.873125,0.896875,0.918125,0.935625,0,0.953125,0.970625,0.988125,1.0025,1.014375,1.025,1.034375,1.044375,1.05125,1.054375,1.0575,1.059375,1.05875,1.054375,1.046875,1.035625,1.020625,1.005,0.985625,0.965,0.94,0.91375,0.885625,0.85625,0.824375,0.79,0.755,0.720625,0.685625,0.65,0.615,0.579375,0,0.544375,0.509375,0.476875,0.446875,0.416875,0.39,0.364375,0.34125,0.320625,0.301875,0.286875,0.2725,0.26375,0.2575,0.255,0.254375,0.255,0.255,0.254375,0.254375,0.25125,0.24875,0.248125,0.245,0.2425,0.23875,0.23625,0.23375,0.23125,0.2275,0.221875,0.215625,0,0.21375,0.20875,0.2025,0.196875,0.19125,0.18625,0.18,0.17375,0.168125,0.1625,0.155625,0.15,0.144375,0.138125,0.1325,0.126875,0.12125,0.115625,0.109375,0.10375,0.0975,0.09125,0.085625,0.080625,0.075,0.069375,0.06625,0.0625,0.05625,0.05,0.0475,0.04375,0,0.041875,0.038125,0.035625,0.0325,0.030625,0.030625,0.0275,0.025625,0.025,0.024375,0.025,0.025,0.025625,0.03,0.0325,0.035625,0.038125,0.043125,0.048125,0.054375,0.06,0.066875,0.07625,0.085,0.094375,0.103125,0.114375,0.12375,0.1325,0.143125,0.155,0.16625,0,0.175625,0.185,0.196875,0.208125,0.22,0.22875,0.236875,0.248125,0.2575,0.266875,0.275,0.284375,0.293125,0.29875,0.305,0.310625,0.315625,0.318125,0.32125,0.324375,0.3275,0.329375,0.329375,0.33,0.329375,0.329375,0.33,0.329375,0.329375,0.329375,0.329375,0.32875,0,0.329375,0.329375,0.329375,0.329375,0.33,0.329375,0.329375,0.329375,0.329375,0.329375,0.329375,0.33,0.329375,0.329375,0.329375,0.329375,0.32875,0.32875,0.329375,0.329375,0.329375,0.33,0.33,0.329375,0.329375,0.329375,0.329375,0.33,0.33,0.33,0.329375,0.329375,0,0.33,0.33,0.33,0.329375,0.32875,0.32875,0.329375,0.329375,0.33,0.33,0.33,0.329375,0.329375,0.32875,0.32875,0.329375,0.329375,0.329375,0.33,0.33,0.33,0.33,0.329375,0.329375,0.329375,0.329375,0.329375,0.33,0.33,0.329375,0.33,0.330625,0,0.33,0.329375,0.329375,0.329375,0.329375,0.329375,0.329375,0.329375,0.33,0.329375,0.329375,0.329375,0.329375,0.32875,0.329375,0.33,0.33,0.33,0.329375,0.329375,0.329375,0.329375,0.32875,0.329375,0.329375,0.329375,0.33,0.33,0.33,0.33,0.33,0.329375,0,0.329375,0.329375,0.33,0.33,0.33,0.329375,0.329375,0.33,0.329375,0.329375,0.329375,0.329375,0.33,0.33,0.33,0.33,0.33,0.329375,0.329375,0.32875,0.32875,0.329375,0.329375,0.33,0.330625,0.33,0.33,0.329375,0.329375,0.329375,0.329375,0.32875,0,0.329375,0.33,0.329375,0.33,0.33,0.329375,0.33,0.33,0.329375,0.329375,0.329375,0.33,0.33,0.33,0.33,0.33,0.329375,0.329375,0.32875,0.32875,0.32875,0.329375,0.33,0.33,0.329375,0.33,0.330625,0.329375,0.329375,0.329375,0.329375,0.329375,0,0.329375,0.329375,0.329375,0.329375,0.329375,0.329375,0.329375,0.32875,0.32875,0.329375,0.33,0.329375,0.329375,0.329375,0.33,0.329375,0.329375,0.329375,0.33,0.329375,0.329375,0.33,0.33,0.33,0.33,0.32875,0.32875,0.329375,0.329375,0.329375,0.329375,0.33,0,0.33,0.329375,0.329375,0.329375,0.329375,0.329375,0.329375,0.329375,0.329375,0.329375,0.33,0.33,0.329375,0.329375,0.329375,0.329375,0.329375,0.329375,0.329375,0.33,0.329375,0.329375,0.329375,0.329375,0.32875,0.329375,0.329375,0.33,0.33,0.33,0.329375,0.329375,0,0.33,0.33,0.33,0.329375,0.329375,0.33,0.33,0.33,0.329375,0.329375,0.33,0.329375,0.32875,0.329375,0.33,0.33,0.329375,0.33,0.33,0.33,0.33,0.33,0.329375,0.329375,0.329375,0.329375,0.329375,0.33,0.33,0.330625,0.333125,0.33875,0,0.34125,0.345,0.35125,0.36,0.36375,0.368125,0.37375,0.375,0.375,0.37625,0.37875,0.38,0.380625,0.380625,0.38,0.38125,0.381875,0.38125,0.38125,0.379375,0.375625,0.375,0.374375,0.373125,0.370625,0.369375,0.3675,0.364375,0.3625,0.358125,0.355,0.3525,0,0.349375,0.346875,0.344375,0.33875,0.335625,0.3325,0.33,0.33,0.32875,0.32875,0.329375,0.329375,0.33,0.33,0.329375,0.33,0.33,0.329375,0.329375,0.329375,0.329375,0.329375,0.33,0.33,0.33,0.33,0.329375,0.329375,0.32875,0.329375,0.329375,0.33,0,0.33,0.33,0.33,0.33,0.329375,0.329375,0.329375,0.33,0.329375,0.32875,0.323125,0.311875,0.3025,0.29125,0.285,0.289375,0.303125,0.329375,0.369375,0.419375,0.471875,0.524375,0.576875,0.629375,0.6825,0.735,0.78625,0.8275,0.858125,0.876875,0.88875,0.89125,0,0.88125,0.861875,0.838125,0.808125,0.77,0.72375,0.673125,0.62,0.566875,0.514375,0.461875,0.408125,0.350625,0.29125,0.24,0.211875,0.211875,0.23625,0.26625,0.29375,0.315625,0.328125,0.329375,0.33,0.329375,0.329375,0.329375,0.329375,0.329375,0.329375,0.329375,0.329375,0,0.329375,0.329375,0.329375,0.329375,0.329375,0.329375,0.32875,0.329375,0.33,0.33,0.329375,0.329375,0.329375,0.329375,0.329375,0.33,0.33,0.33,0.330625,0.329375,0.33,0.329375,0.329375,0.329375,0.329375,0.329375,0.33,0.33,0.33,0.331875,0.335,0.335625,0,0.336875,0.340625,0.3425,0.345625,0.346875,0.34625,0.349375,0.3525,0.3525,0.353125,0.35625,0.358125,0.358125,0.35875,0.3625,0.364375,0.364375,0.36875,0.374375,0.38,0.385,0.3875,0.39125,0.396875,0.403125,0.409375,0.415,0.42125,0.426875,0.4325,0.438125,0.443125,0,0.449375,0.45625,0.46125,0.463125,0.466875,0.469375,0.473125,0.473125,0.475,0.47875,0.479375,0.47875,0.4775,0.47375,0.473125,0.471875,0.468125,0.465625,0.461875,0.45875,0.455625,0.453125,0.4475,0.441875,0.439375,0.435625,0.43,0.426875,0.423125,0.416875,0.41125,0.405625,0,0.400625,0.39875,0.395625,0.391875,0.388125,0.383125,0.38,0.37625,0.374375,0.370625,0.368125,0.365,0.363125,0.359375,0.358125,0.356875,0.353125,0.350625,0.345625,0.34125,0.339375,0.335625,0.335,0.335625,0.33375,0.33,0.32875,0.329375,0.33,0.33,0.329375,0.33,0,0.33,0.33,0.33,0.329375,0.329375,0.329375,0.33,0.33,0.33,0.33,0.33,0.33,0.33,0.329375,0.329375,0.329375,0.329375,0.329375,0.329375,0.33,0.33,0.33,0.33,0.33,0.329375,0.329375,0.329375,0.33,0.33,0.33,0.329375,0.329375,0,0.329375,0.33,0.33,0.329375,0.329375,0.329375,0.329375,0.32875,0.329375,0.33,0.33,0.329375,0.329375,0.32875,0.329375,0.329375,0.329375,0.33,0.33,0.33,0.329375,0.329375,0.32875,0.329375,0.329375,0.329375,0.33,0.329375,0.33,0.33,0.329375,0.329375,0,0.33,0.33,0.329375,0.329375,0.33,0.33,0.33,0.329375,0.329375,0.329375,0.329375,0.329375,0.329375,0.329375,0.329375,0.329375,0.33,0.330625,0.33,0.33,0.329375,0.329375,0.329375,0.329375,0.33,0.330625,0.33,0.329375,0.329375,0.329375,0.329375,0.329375,0,0.329375,0.32875,0.329375,0.33,0.33,0.329375,0.33,0.33,0.329375,0.32875,0.329375,0.329375,0.329375,0.33,0.329375,0.33,0.33,0.329375,0.329375,0.329375,0.32875,0.329375,0.329375,0.329375,0.33,0.33,0.33,0.33,0.33,0.329375,0.32875,0.329375,0,0.329375,0.329375,0.33,0.33,0.33,0.329375,0.329375,0.329375,0.329375,0.329375,0.329375,0.33,0.329375,0.329375,0.33125,0.33625,0.34,0.343125,0.34875,0.35625,0.363125,0.36625,0.371875,0.375,0.375,0.375625,0.378125,0.380625,0.380625,0.380625,0.380625,0.38125,0,0.38125,0.38125,0.381875,0.380625,0.376875,0.375,0.375,0.37375,0.37125,0.369375,0.36875,0.365625,0.363125,0.359375,0.35625,0.353125,0.350625,0.3475,0.345625,0.340625,0.335625,0.333125,0.33,0.329375,0.329375,0.32875,0.32875,0.329375,0.329375,0.329375,0.33,0.33,0,0.33,0.33,0.33,0.329375,0.329375,0.329375,0.329375,0.329375,0.33,0.33,0.33,0.329375,0.329375,0.329375,0.32875,0.329375,0.32875,0.329375,0.329375,0.329375,0.33,0.33,0.329375,0.329375,0.329375,0.329375,0.32625,0.315,0.305625,0.294375,0.285625,0.28625,0,0.2975,0.31875,0.354375,0.40125,0.45375,0.506875,0.56,0.6125,0.665,0.7175,0.769375,0.815,0.84875,0.87125,0.885,0.89125,0.88625,0.87,0.84625,0.819375,0.78375,0.739375,0.689375,0.63625,0.58375,0.531875,0.47875,0.425625,0.369375,0.310625,0.255,0.21875,0,0.20875,0.226875,0.25625,0.285,0.30875,0.325625,0.329375,0.33,0.329375,0.329375,0.329375,0.329375,0.329375,0.33,0.33,0.33,0.33,0.33,0.329375,0.329375,0.33,0.329375,0.32875,0.32875,0.33,0.33,0.329375,0.329375,0.329375,0.329375,0.329375,0.32875,0,0.329375,0.329375,0.33,0.33,0.329375,0.33,0.329375,0.329375,0.329375,0.329375,0.329375,0.329375,0.33,0.330625,0.33375,0.335,0.33625,0.339375,0.341875,0.345625,0.34625,0.34625,0.3475,0.35125,0.3525,0.3525,0.35375,0.356875,0.3575,0.358125,0.360625,0.36375,0,0.36375,0.36625,0.371875,0.3775,0.3825,0.38625,0.389375,0.395,0.400625,0.406875,0.413125,0.41875,0.425,0.430625,0.435625,0.44125,0.446875,0.45375,0.46,0.461875,0.465,0.468125,0.471875,0.473125,0.47375,0.476875,0.478125,0.47875,0.478125,0.475,0.47375,0.4725,0,0.46875,0.465625,0.4625,0.46,0.45625,0.45375,0.44875,0.443125,0.439375,0.43625,0.431875,0.4275,0.425,0.41875,0.413125,0.406875,0.40125,0.398125,0.39625,0.393125,0.39,0.384375,0.38125,0.378125,0.375,0.37125,0.36875,0.36625,0.363125,0.36,0.358125,0.3575,0,0.35375,0.351875,0.348125,0.3425,0.34,0.336875,0.335,0.335,0.334375,0.33125,0.329375,0.32875,0.32875,0.32875,0.32875,0.329375,0.33,0.329375,0.329375,0.33,0.329375,0.329375,0.329375,0.33,0.329375,0.329375,0.329375,0.32875,0.329375,0.329375,0.329375,0.329375,0,0.329375,0.329375,0.329375,0.33,0.33,0.33,0.33,0.33,0.329375,0.329375,0.329375,0.329375,0.32875,0.329375,0.33,0.33,0.33,0.33,0.329375,0.32875,0.32875,0.32875,0.329375,0.329375,0.33,0.33,0.329375,0.329375,0.329375,0.32875,0.329375,0.329375,0,0.32875,0.32875,0.329375,0.329375,0.329375,0.329375,0.329375,0.32875,0.329375,0.32875,0.329375,0.329375,0.32875,0.329375,0.329375,0.329375,0.329375,0.329375,0.329375,0.329375,0.329375,0.329375,0.329375,0.329375,0.33,0.33,0.329375,0.329375,0.329375,0.329375,0.32875,0.329375,0,0.329375,0.329375,0.329375,0.329375,0.329375,0.32875,0.32875,0.32875,0.32875,0.33,0.33,0.329375,0.329375,0.329375,0.329375,0.329375,0.329375,0.329375,0.32875,0.329375,0.329375,0.329375,0.329375,0.33,0.33,0.32875,0.32875,0.32875,0.32875,0.32875,0.32875,0.329375,0,0.329375,0.329375,0.329375,0.329375,0.32875,0.32875,0.329375,0.329375,0.329375,0.33,0.33,0.33,0.329375,0.329375,0.329375,0.32875,0.32875,0.329375,0.329375,0.329375,0.329375,0.329375,0.329375,0.329375,0.329375,0.329375,0.329375,0.329375,0.32875,0.32875,0.330625,0.335,0,0.339375,0.341875,0.346875,0.353125,0.36125,0.364375,0.369375,0.37375,0.375,0.375625,0.3775,0.38,0.380625,0.38,0.380625,0.380625,0.380625,0.38125,0.381875,0.38125,0.378125,0.375,0.375,0.374375,0.371875,0.37,0.369375,0.36625,0.364375,0.36125,0.3575,0.353125,0,0.35125,0.3475,0.345,0.341875,0.33625,0.33375,0.330625,0.329375,0.329375,0.329375,0.329375,0.329375,0.329375,0.32875,0.329375,0.33,0.329375,0.32875,0.32875,0.329375,0.32875,0.32875,0.32875,0.329375,0.33,0.329375,0.329375,0.329375,0.329375,0.329375,0.329375,0.329375,0,0.329375,0.329375,0.329375,0.329375,0.329375,0.329375,0.329375,0.33,0.329375,0.329375,0.3275,0.31875,0.308125,0.29875,0.288125,0.285,0.293125,0.310625,0.34125,0.385,0.43625,0.48875,0.541875,0.595,0.6475,0.7,0.753125,0.801875,0.839375,0.86625,0.88125,0.89,0,0.88875,0.87625,0.854375,0.829375,0.796875,0.754375,0.70625,0.65375,0.600625,0.54875,0.49625,0.443125,0.388125,0.33,0.2725,0.228125,0.20875,0.218125,0.245625,0.275,0.30125,0.32125,0.329375,0.33,0.329375,0.329375,0.32875,0.32875,0.32875,0.32875,0.329375,0.33,0,0.33,0.33,0.33,0.329375,0.329375,0.329375,0.32875,0.329375,0.329375,0.33,0.33,0.33,0.329375,0.329375,0.32875,0.329375,0.32875,0.329375,0.329375,0.329375,0.329375,0.33,0.329375,0.329375,0.329375,0.328125,0.32875,0.329375,0.329375,0.329375,0.3325,0.335625,0,0.335625,0.33875,0.340625,0.344375,0.34625,0.345625,0.346875,0.350625,0.3525,0.3525,0.35375,0.3575,0.358125,0.358125,0.35875,0.3625,0.364375,0.365625,0.37,0.37625,0.38125,0.38625,0.388125,0.3925,0.398125,0.40375,0.410625,0.41625,0.4225,0.429375,0.435,0.44,0,0.44625,0.451875,0.4575,0.46125,0.46375,0.4675,0.470625,0.473125,0.47375,0.475625,0.478125,0.47875,0.478125,0.475,0.473125,0.473125,0.47,0.466875,0.464375,0.46125,0.4575,0.455,0.45,0.444375,0.439375,0.438125,0.43375,0.42875,0.42625,0.421875,0.415625,0.409375,0,0.403125,0.39875,0.396875,0.393125,0.39125,0.38625,0.381875,0.38,0.375625,0.3725,0.369375,0.366875,0.36375,0.36125,0.359375,0.358125,0.355625,0.3525,0.349375,0.344375,0.34125,0.338125,0.335625,0.335625,0.335,0.333125,0.33,0.329375,0.329375,0.329375,0.32875,0.32875,0,0.329375,0.329375,0.329375,0.33,0.33,0.329375,0.329375,0.33,0.329375,0.329375,0.329375,0.329375,0.329375,0.33,0.33,0.329375,0.329375,0.329375,0.32875,0.32875,0.329375,0.33,0.329375,0.329375,0.33,0.33,0.329375,0.329375,0.329375,0.329375,0.329375,0.32875,0,0.329375,0.329375,0.329375,0.329375,0.329375,0.329375,0.32875,0.33,0.329375,0.329375,0.329375,0.33,0.33,0.329375,0.329375,0.329375,0.329375,0.32875,0.329375,0.329375,0.329375,0.329375,0.33,0.33,0.32875,0.32875,0.32875,0.32875,0.329375,0.329375,0.329375,0.33,0,0.329375,0.32875,0.32875,0.329375,0.329375,0.329375,0.32875,0.329375,0.33,0.330625,0.33,0.329375,0.33,0.33,0.329375,0.329375,0.329375,0.329375,0.329375,0.329375,0.329375,0.32875,0.32875,0.32875,0.32875,0.329375,0.329375,0.329375,0.329375,0.33,0.33,0.329375,0,0.329375,0.32875,0.329375,0.33,0.33,0.329375,0.33,0.33,0.33,0.330625,0.329375,0.329375,0.329375,0.33,0.33,0.33,0.329375,0.33,0.329375,0.329375,0.329375,0.33,0.329375,0.32875,0.329375,0.329375,0.33,0.330625,0.33,0.329375,0.329375,0.329375,0,0.329375,0.329375,0.33,0.329375,0.32875,0.33,0.329375,0.329375,0.329375,0.329375,0.32875,0.329375,0.33,0.33,0.33,0.33375,0.33875,0.34125,0.345,0.35125,0.35875,0.36375,0.368125,0.373125,0.375,0.375,0.37625,0.38,0.380625,0.380625,0.380625,0.38,0,0.38,0.380625,0.38125,0.381875,0.379375,0.375625,0.374375,0.374375,0.373125,0.37,0.369375,0.3675,0.364375,0.361875,0.359375,0.355625,0.3525,0.349375,0.34625,0.34375,0.338125,0.335,0.3325,0.33,0.33,0.329375,0.329375,0.329375,0.329375,0.329375,0.329375,0.33,0,0.329375,0.33,0.33,0.33,0.329375,0.329375,0.32875,0.329375,0.33,0.33,0.33,0.33,0.33,0.33,0.33,0.329375,0.32875,0.32875,0.329375,0.33,0.329375,0.33,0.33,0.33,0.329375,0.329375,0.32875,0.321875,0.31125,0.301875,0.29125,0.285,0,0.29,0.304375,0.33,0.37,0.41875,0.47125,0.524375,0.5775,0.630625,0.683125,0.735625,0.786875,0.82875,0.859375,0.876875,0.888125,0.89,0.88125,0.861875,0.838125,0.80875,0.769375,0.7225,0.670625,0.61875,0.56625,0.5125,0.46,0.40625,0.349375,0.29125,0.240625,0,0.213125,0.213125,0.23625,0.265625,0.29375,0.31625,0.328125,0.329375,0.329375,0.33,0.33,0.32875,0.329375,0.329375,0.329375,0.329375,0.329375,0.329375,0.329375,0.33,0.329375,0.329375,0.329375,0.329375,0.329375,0.329375,0.33,0.33,0.33,0.329375,0.329375,0.33,0,0.329375,0.33,0.329375,0.329375,0.329375,0.33,0.33,0.329375,0.32875,0.33,0.329375,0.329375,0.32875,0.32875,0.330625,0.334375,0.335,0.3375,0.340625,0.3425,0.345625,0.345625,0.346875,0.34875,0.3525,0.3525,0.353125,0.35625,0.358125,0.3575,0.35875,0.36125,0,0.363125,0.364375,0.368125,0.37375,0.379375,0.384375,0.386875,0.391875,0.396875,0.403125,0.40875,0.415,0.42125,0.4275,0.4325,0.438125,0.443125,0.449375,0.455625,0.46,0.4625,0.46625,0.469375,0.4725,0.473125,0.475,0.4775,0.478125,0.47875,0.47625,0.473125,0.473125,0,0.470625,0.468125,0.465625,0.461875,0.45875,0.455625,0.4525,0.44625,0.440625,0.43875,0.435625,0.43,0.42625,0.423125,0.4175,0.411875,0.405625,0.4,0.3975,0.39375,0.391875,0.388125,0.383125,0.38125,0.3775,0.374375,0.37,0.368125,0.364375,0.3625,0.359375,0.358125,0,0.356875,0.35375,0.351875,0.345625,0.340625,0.33875,0.335625,0.335,0.335,0.333125,0.33,0.329375,0.33,0.329375,0.329375,0.32875,0.329375,0.33,0.33,0.33,0.329375,0.329375,0.329375,0.329375,0.329375,0.329375,0.32875,0.32875,0.329375,0.33,0.33,0.33,0,0.329375,0.329375,0.329375,0.329375,0.329375,0.329375,0.32875,0.32875,0.329375,0.33,0.329375,0.329375,0.329375,0.329375,0.329375,0.33,0.33,0.33,0.329375,0.329375,0.33,0.32875,0.32875,0.329375,0.32875,0.329375,0.329375,0.329375,0.329375,0.33,0.329375,0.329375,0,0.329375,0.329375,0.329375,0.329375,0.329375,0.33,0.33,0.33,0.329375,0.329375,0.329375,0.329375,0.329375,0.33,0.329375,0.329375,0.33,0.33,0.329375,0.329375,0.329375,0.329375,0.329375,0.329375,0.329375,0.33,0.329375,0.329375,0.329375,0.33,0.329375,0.329375,0,0.32875,0.32875,0.329375,0.33,0.33,0.329375,0.329375,0.329375,0.33,0.33,0.33,0.329375,0.329375,0.33,0.33,0.33,0.33,0.329375,0.329375,0.329375,0.329375,0.329375,0.32875,0.329375,0.33,0.33,0.329375,0.329375,0.329375,0.329375,0.329375,0.33,0,0.33,0.33,0.33,0.33,0.33,0.329375,0.329375,0.329375,0.32875,0.329375,0.32875,0.329375,0.33,0.33,0.33,0.329375,0.329375,0.329375,0.329375,0.33,0.33,0.33,0.33,0.329375,0.33,0.329375,0.32875,0.329375,0.329375,0.33,0.33,0.331875,0,0.3375,0.340625,0.343125,0.349375,0.356875,0.36375,0.366875,0.371875,0.374375,0.375625,0.37625,0.37875,0.380625,0.38,0.380625,0.380625,0.380625,0.380625,0.38125,0.38125,0.380625,0.376875,0.375,0.375,0.374375,0.371875,0.37,0.36875,0.365,0.363125,0.359375,0.356875,0,0.35375,0.350625,0.346875,0.345,0.34,0.335625,0.333125,0.33,0.33,0.329375,0.329375,0.329375,0.32875,0.32875,0.329375,0.329375,0.329375,0.33,0.33,0.329375,0.329375,0.329375,0.329375,0.329375,0.32875,0.32875,0.329375,0.329375,0.329375,0.33,0.33,0.33,0